# Matter power spectra at z=3.800000.
# D(z)=0.266583, f(z)=0.987738.
#      k[h/Mpc]         Plin(k)         HaloFit
    1.00000e-04     3.15933e+01     3.15933e+01
    1.04729e-04     3.30409e+01     3.30409e+01
    1.09682e-04     3.45546e+01     3.45547e+01
    1.14868e-04     3.61377e+01     3.61378e+01
    1.20301e-04     3.77934e+01     3.77934e+01
    1.25990e-04     3.95249e+01     3.95249e+01
    1.31948e-04     4.13355e+01     4.13355e+01
    1.38187e-04     4.32287e+01     4.32286e+01
    1.44722e-04     4.52086e+01     4.52085e+01
    1.51566e-04     4.72792e+01     4.72790e+01
    1.58734e-04     4.94445e+01     4.94442e+01
    1.66240e-04     5.17086e+01     5.17082e+01
    1.74102e-04     5.40759e+01     5.40755e+01
    1.82335e-04     5.65514e+01     5.65510e+01
    1.90957e-04     5.91401e+01     5.91397e+01
    1.99988e-04     6.18471e+01     6.18467e+01
    2.09445e-04     6.46774e+01     6.46769e+01
    2.19350e-04     6.76364e+01     6.76359e+01
    2.29723e-04     7.07304e+01     7.07299e+01
    2.40586e-04     7.39656e+01     7.39650e+01
    2.51964e-04     7.73482e+01     7.73475e+01
    2.63879e-04     8.08843e+01     8.08836e+01
    2.76358e-04     8.45809e+01     8.45801e+01
    2.89427e-04     8.84455e+01     8.84446e+01
    3.03114e-04     9.24858e+01     9.24848e+01
    3.17448e-04     9.67094e+01     9.67083e+01
    3.32460e-04     1.01124e+02     1.01123e+02
    3.48182e-04     1.05738e+02     1.05736e+02
    3.64647e-04     1.10560e+02     1.10559e+02
    3.81891e-04     1.15601e+02     1.15599e+02
    3.99951e-04     1.20868e+02     1.20866e+02
    4.18865e-04     1.26372e+02     1.26370e+02
    4.38673e-04     1.32123e+02     1.32121e+02
    4.59417e-04     1.38132e+02     1.38129e+02
    4.81143e-04     1.44409e+02     1.44407e+02
    5.03896e-04     1.50967e+02     1.50965e+02
    5.27725e-04     1.57817e+02     1.57814e+02
    5.52681e-04     1.64970e+02     1.64966e+02
    5.78818e-04     1.72439e+02     1.72436e+02
    6.06190e-04     1.80239e+02     1.80235e+02
    6.34857e-04     1.88381e+02     1.88377e+02
    6.64879e-04     1.96880e+02     1.96876e+02
    6.96321e-04     2.05749e+02     2.05744e+02
    7.29250e-04     2.15004e+02     2.14998e+02
    7.63736e-04     2.24659e+02     2.24653e+02
    7.99853e-04     2.34729e+02     2.34723e+02
    8.37678e-04     2.45231e+02     2.45223e+02
    8.77291e-04     2.56178e+02     2.56170e+02
    9.18778e-04     2.67589e+02     2.67580e+02
    9.62227e-04     2.79479e+02     2.79470e+02
    1.00773e-03     2.91866e+02     2.91856e+02
    1.05539e-03     3.04766e+02     3.04755e+02
    1.10530e-03     3.18197e+02     3.18184e+02
    1.15756e-03     3.32174e+02     3.32161e+02
    1.21231e-03     3.46716e+02     3.46702e+02
    1.26964e-03     3.61840e+02     3.61824e+02
    1.32968e-03     3.77563e+02     3.77546e+02
    1.39256e-03     3.93903e+02     3.93884e+02
    1.45841e-03     4.10876e+02     4.10855e+02
    1.52738e-03     4.28500e+02     4.28477e+02
    1.59961e-03     4.46792e+02     4.46767e+02
    1.67525e-03     4.65769e+02     4.65742e+02
    1.75447e-03     4.85447e+02     4.85418e+02
    1.83744e-03     5.05840e+02     5.05808e+02
    1.92434e-03     5.26962e+02     5.26927e+02
    2.01534e-03     5.48827e+02     5.48789e+02
    2.11064e-03     5.71450e+02     5.71409e+02
    2.21045e-03     5.94841e+02     5.94796e+02
    2.31499e-03     6.19006e+02     6.18957e+02
    2.42446e-03     6.43953e+02     6.43899e+02
    2.53911e-03     6.69689e+02     6.69630e+02
    2.65919e-03     6.96219e+02     6.96156e+02
    2.78494e-03     7.23545e+02     7.23476e+02
    2.91664e-03     7.51661e+02     7.51586e+02
    3.05457e-03     7.80561e+02     7.80479e+02
    3.19902e-03     8.10240e+02     8.10152e+02
    3.35030e-03     8.40693e+02     8.40597e+02
    3.50873e-03     8.71901e+02     8.71797e+02
    3.67466e-03     9.03841e+02     9.03728e+02
    3.84844e-03     9.36486e+02     9.36364e+02
    4.03043e-03     9.69813e+02     9.69680e+02
    4.22103e-03     1.00379e+03     1.00365e+03
    4.42064e-03     1.03839e+03     1.03823e+03
    4.62969e-03     1.07354e+03     1.07337e+03
    4.84863e-03     1.10920e+03     1.10902e+03
    5.07792e-03     1.14531e+03     1.14512e+03
    5.31805e-03     1.18182e+03     1.18161e+03
    5.56954e-03     1.21865e+03     1.21843e+03
    5.83292e-03     1.25571e+03     1.25547e+03
    6.10876e-03     1.29291e+03     1.29265e+03
    6.39764e-03     1.33016e+03     1.32988e+03
    6.70019e-03     1.36736e+03     1.36706e+03
    7.01704e-03     1.40439e+03     1.40407e+03
    7.34887e-03     1.44111e+03     1.44077e+03
    7.69640e-03     1.47739e+03     1.47702e+03
    8.06036e-03     1.51309e+03     1.51269e+03
    8.44153e-03     1.54806e+03     1.54764e+03
    8.84073e-03     1.58212e+03     1.58168e+03
    9.25881e-03     1.61510e+03     1.61463e+03
    9.69666e-03     1.64678e+03     1.64628e+03
    1.01552e-02     1.67698e+03     1.67646e+03
    1.06354e-02     1.70551e+03     1.70495e+03
    1.11384e-02     1.73212e+03     1.73154e+03
    1.16651e-02     1.75659e+03     1.75598e+03
    1.22168e-02     1.77867e+03     1.77803e+03
    1.27945e-02     1.79811e+03     1.79746e+03
    1.33996e-02     1.81468e+03     1.81401e+03
    1.40332e-02     1.82813e+03     1.82743e+03
    1.46968e-02     1.83821e+03     1.83749e+03
    1.53919e-02     1.84466e+03     1.84393e+03
    1.61197e-02     1.84724e+03     1.84650e+03
    1.68820e-02     1.84571e+03     1.84495e+03
    1.76804e-02     1.83988e+03     1.83912e+03
    1.85165e-02     1.82961e+03     1.82886e+03
    1.93921e-02     1.81478e+03     1.81404e+03
    2.03092e-02     1.79523e+03     1.79450e+03
    2.12696e-02     1.77086e+03     1.77015e+03
    2.22754e-02     1.74173e+03     1.74105e+03
    2.33288e-02     1.70805e+03     1.70740e+03
    2.44320e-02     1.66998e+03     1.66937e+03
    2.55874e-02     1.62771e+03     1.62715e+03
    2.67975e-02     1.58145e+03     1.58094e+03
    2.80647e-02     1.53174e+03     1.53129e+03
    2.93919e-02     1.47925e+03     1.47886e+03
    3.07818e-02     1.42463e+03     1.42431e+03
    3.22375e-02     1.36857e+03     1.36833e+03
    3.37620e-02     1.31174e+03     1.31157e+03
    3.53586e-02     1.25494e+03     1.25485e+03
    3.70307e-02     1.19899e+03     1.19898e+03
    3.87819e-02     1.14472e+03     1.14480e+03
    4.06159e-02     1.09297e+03     1.09314e+03
    4.25366e-02     1.04444e+03     1.04471e+03
    4.45481e-02     9.99501e+02     9.99886e+02
    4.66548e-02     9.58468e+02     9.58970e+02
    4.88611e-02     9.21584e+02     9.22214e+02
    5.11717e-02     8.88635e+02     8.89407e+02
    5.35916e-02     8.59177e+02     8.60107e+02
    5.61260e-02     8.32456e+02     8.33561e+02
    5.87802e-02     8.07447e+02     8.08743e+02
    6.15599e-02     7.82861e+02     7.84362e+02
    6.44710e-02     7.57287e+02     7.59002e+02
    6.75198e-02     7.29327e+02     7.31256e+02
    7.07128e-02     6.97820e+02     6.99949e+02
    7.40568e-02     6.62083e+02     6.64388e+02
    7.75590e-02     6.22128e+02     6.24573e+02
    8.12267e-02     5.78792e+02     5.81337e+02
    8.50679e-02     5.33715e+02     5.36323e+02
    8.90908e-02     4.89126e+02     4.91774e+02
    9.33039e-02     4.47454e+02     4.50136e+02
    9.77162e-02     4.10849e+02     4.13581e+02
    1.02337e-01     3.80717e+02     3.83534e+02
    1.07177e-01     3.57372e+02     3.60320e+02
    1.12245e-01     3.39880e+02     3.43009e+02
    1.17553e-01     3.26110e+02     3.29461e+02
    1.23112e-01     3.13114e+02     3.16696e+02
    1.28934e-01     2.97913e+02     3.01689e+02
    1.35031e-01     2.78613e+02     2.82500e+02
    1.41417e-01     2.55334e+02     2.59231e+02
    1.48105e-01     2.30313e+02     2.34146e+02
    1.55108e-01     2.06910e+02     2.10670e+02
    1.62444e-01     1.88000e+02     1.91735e+02
    1.70125e-01     1.74563e+02     1.78355e+02
    1.78171e-01     1.65233e+02     1.69150e+02
    1.86596e-01     1.57042e+02     1.61098e+02
    1.95420e-01     1.46894e+02     1.51020e+02
    2.04662e-01     1.33886e+02     1.37971e+02
    2.14340e-01     1.20054e+02     1.24035e+02
    2.24476e-01     1.08218e+02     1.12118e+02
    2.35092e-01     9.96980e+01     1.03592e+02
    2.46209e-01     9.34122e+01     9.73511e+01
    2.57852e-01     8.69196e+01     9.08748e+01
    2.70046e-01     7.90914e+01     8.29847e+01
    2.82817e-01     7.11039e+01     7.48981e+01
    2.96191e-01     6.47110e+01     6.84435e+01
    3.10198e-01     5.98150e+01     6.35267e+01
    3.24867e-01     5.50338e+01     5.87082e+01
    3.40230e-01     4.98416e+01     5.34352e+01
    3.56319e-01     4.51044e+01     4.86159e+01
    3.73170e-01     4.12735e+01     4.47286e+01
    3.90817e-01     3.77188e+01     4.11129e+01
    4.09298e-01     3.41641e+01     3.74774e+01
    4.28654e-01     3.09945e+01     3.42308e+01
    4.48925e-01     2.82292e+01     3.13959e+01
    4.70155e-01     2.56035e+01     2.86929e+01
    4.92388e-01     2.31845e+01     2.61945e+01
    5.15673e-01     2.10418e+01     2.39766e+01
    5.40059e-01     1.90500e+01     2.19067e+01
    5.65599e-01     1.72385e+01     2.00172e+01
    5.92346e-01     1.56010e+01     1.83029e+01
    6.20358e-01     1.41004e+01     1.67250e+01
    6.49694e-01     1.27433e+01     1.52918e+01
    6.80418e-01     1.15069e+01     1.39797e+01
    7.12595e-01     1.03853e+01     1.27832e+01
    7.46294e-01     9.36937e+00     1.16935e+01
    7.81586e-01     8.44779e+00     1.06992e+01
    8.18547e-01     7.61264e+00     9.79236e+00
    8.57256e-01     6.85671e+00     8.96598e+00
    8.97795e-01     6.17298e+00     8.21309e+00
    9.40252e-01     5.55463e+00     7.52692e+00
    9.84716e-01     4.99593e+00     6.90175e+00
    1.03128e+00     4.49149e+00     6.33226e+00
    1.08005e+00     4.03601e+00     5.81316e+00
    1.13113e+00     3.62492e+00     5.33989e+00
    1.18462e+00     3.25445e+00     4.90872e+00
    1.24064e+00     2.92086e+00     4.51590e+00
    1.29931e+00     2.62042e+00     4.15771e+00
    1.36075e+00     2.34963e+00     3.83066e+00
    1.42510e+00     2.10591e+00     3.53215e+00
    1.49250e+00     1.88688e+00     3.25980e+00
    1.56308e+00     1.69017e+00     3.01124e+00
    1.63699e+00     1.51343e+00     2.78408e+00
    1.71441e+00     1.35447e+00     2.57614e+00
    1.79548e+00     1.21172e+00     2.38582e+00
    1.88039e+00     1.08371e+00     2.21164e+00
    1.96931e+00     9.69020e-01     2.05215e+00
    2.06244e+00     8.66183e-01     1.90586e+00
    2.15997e+00     7.73874e-01     1.77142e+00
    2.26212e+00     6.91146e-01     1.64787e+00
    2.36909e+00     6.17122e-01     1.53430e+00
    2.48113e+00     5.50928e-01     1.42981e+00
    2.59846e+00     4.91690e-01     1.33349e+00
    2.72134e+00     4.38610e-01     1.24453e+00
    2.85003e+00     3.91125e-01     1.16234e+00
    2.98481e+00     3.48715e-01     1.08637e+00
    3.12596e+00     3.10859e-01     1.01606e+00
    3.27379e+00     2.77039e-01     9.50883e-01
    3.42860e+00     2.46783e-01     8.90327e-01
    3.59074e+00     2.19760e-01     8.34041e-01
    3.76055e+00     1.95667e-01     7.81692e-01
    3.93838e+00     1.74196e-01     7.32949e-01
    4.12463e+00     1.55044e-01     6.87481e-01
    4.31968e+00     1.37935e-01     6.44987e-01
    4.52396e+00     1.22677e-01     6.05253e-01
    4.73789e+00     1.09094e-01     5.68076e-01
    4.96195e+00     9.70077e-02     5.33257e-01
    5.19660e+00     8.62405e-02     5.00595e-01
    5.44234e+00     7.66341e-02     4.69907e-01
    5.69971e+00     6.80787e-02     4.41063e-01
    5.96925e+00     6.04725e-02     4.13943e-01
    6.25153e+00     5.37134e-02     3.88422e-01
    6.54717e+00     4.76997e-02     3.64380e-01
    6.85678e+00     4.23407e-02     3.41706e-01
    7.18104e+00     3.75742e-02     3.20321e-01
    7.52063e+00     3.33419e-02     3.00148e-01
    7.87628e+00     2.95857e-02     2.81113e-01
    8.24875e+00     2.62474e-02     2.63140e-01
    8.63883e+00     2.32757e-02     2.46162e-01
    9.04736e+00     2.06355e-02     2.30127e-01
    9.47521e+00     1.82938e-02     2.14989e-01
    9.92329e+00     1.62179e-02     2.00698e-01
    1.03926e+01     1.43748e-02     1.87208e-01
    1.08840e+01     1.27357e-02     1.74474e-01
    1.13987e+01     1.12810e-02     1.62462e-01
    1.19378e+01     9.99219e-03     1.51140e-01
    1.25023e+01     8.85077e-03     1.40475e-01
    1.30935e+01     7.83831e-03     1.30434e-01
    1.37127e+01     6.93873e-03     1.20986e-01
    1.43612e+01     6.14109e-03     1.12107e-01
    1.50403e+01     5.43507e-03     1.03770e-01
    1.57516e+01     4.81039e-03     9.59508e-02
    1.64965e+01     4.25676e-03     8.86244e-02
    1.72766e+01     3.76527e-03     8.17670e-02
    1.80936e+01     3.32987e-03     7.53569e-02
    1.89492e+01     2.94483e-03     6.93730e-02
    1.98454e+01     2.60445e-03     6.37941e-02
    2.07838e+01     2.30300e-03     5.85990e-02
    2.17667e+01     2.03560e-03     5.37674e-02
    2.27960e+01     1.79890e-03     4.92804e-02
    2.38741e+01     1.58976e-03     4.51197e-02
    2.50031e+01     1.40502e-03     4.12665e-02
    2.61855e+01     1.24153e-03     3.77023e-02
    2.74238e+01     1.09660e-03     3.44096e-02
    2.87206e+01     9.68424e-04     3.13725e-02
    3.00788e+01     8.55255e-04     2.85753e-02
    3.15012e+01     7.55364e-04     2.60023e-02
    3.29909e+01     6.67023e-04     2.36379e-02
    3.45511e+01     5.88766e-04     2.14675e-02
    3.61850e+01     5.19600e-04     1.94785e-02
    3.78962e+01     4.58577e-04     1.76585e-02
    3.96883e+01     4.04751e-04     1.59950e-02
    4.15651e+01     3.57178e-04     1.44757e-02
    4.35307e+01     3.15062e-04     1.30893e-02
    4.55893e+01     2.77864e-04     1.18264e-02
    4.77452e+01     2.45068e-04     1.06776e-02
    5.00031e+01     2.16159e-04     9.63382e-03
    5.23677e+01     1.90624e-04     8.68574e-03
    5.48442e+01     1.68032e-04     7.82512e-03
    5.74377e+01     1.48091e-04     7.04527e-03
    6.01540e+01     1.30522e-04     6.33965e-03
    6.29986e+01     1.15044e-04     5.70171e-03
    6.59778e+01     1.01380e-04     5.12494e-03
    6.90979e+01     8.92971e-05     4.60361e-03
    7.23655e+01     7.86392e-05     4.13326e-03
    7.57877e+01     6.92558e-05     3.70956e-03
    7.93717e+01     6.09965e-05     3.32815e-03
    8.31251e+01     5.37113e-05     2.98471e-03
    8.70561e+01     4.72756e-05     2.67544e-03
    9.11730e+01     4.16025e-05     2.39734e-03
    9.54846e+01     3.66081e-05     2.14747e-03
    1.00000e+02     3.22087e-05     1.92290e-03
