# Matter power spectra at z=1.400000.
# D(z)=0.519730, f(z)=0.917898.
#      k[h/Mpc]         Plin(k)         HaloFit
    1.00000e-04     1.20525e+02     1.20525e+02
    1.04729e-04     1.26047e+02     1.26047e+02
    1.09682e-04     1.31821e+02     1.31821e+02
    1.14868e-04     1.37860e+02     1.37860e+02
    1.20301e-04     1.44175e+02     1.44176e+02
    1.25990e-04     1.50780e+02     1.50780e+02
    1.31948e-04     1.57686e+02     1.57686e+02
    1.38187e-04     1.64907e+02     1.64906e+02
    1.44722e-04     1.72459e+02     1.72456e+02
    1.51566e-04     1.80356e+02     1.80352e+02
    1.58734e-04     1.88615e+02     1.88609e+02
    1.66240e-04     1.97250e+02     1.97243e+02
    1.74102e-04     2.06278e+02     2.06271e+02
    1.82335e-04     2.15719e+02     2.15711e+02
    1.90957e-04     2.25592e+02     2.25583e+02
    1.99988e-04     2.35915e+02     2.35905e+02
    2.09445e-04     2.46707e+02     2.46697e+02
    2.19350e-04     2.57990e+02     2.57980e+02
    2.29723e-04     2.69788e+02     2.69776e+02
    2.40586e-04     2.82123e+02     2.82110e+02
    2.51964e-04     2.95019e+02     2.95005e+02
    2.63879e-04     3.08500e+02     3.08484e+02
    2.76358e-04     3.22592e+02     3.22575e+02
    2.89427e-04     3.37323e+02     3.37304e+02
    3.03114e-04     3.52723e+02     3.52702e+02
    3.17448e-04     3.68820e+02     3.68798e+02
    3.32460e-04     3.85643e+02     3.85619e+02
    3.48182e-04     4.03224e+02     4.03198e+02
    3.64647e-04     4.21599e+02     4.21570e+02
    3.81891e-04     4.40801e+02     4.40770e+02
    3.99951e-04     4.60867e+02     4.60832e+02
    4.18865e-04     4.81832e+02     4.81793e+02
    4.38673e-04     5.03733e+02     5.03691e+02
    4.59417e-04     5.26613e+02     5.26567e+02
    4.81143e-04     5.50514e+02     5.50464e+02
    5.03896e-04     5.75478e+02     5.75423e+02
    5.27725e-04     6.01547e+02     6.01488e+02
    5.52681e-04     6.28768e+02     6.28702e+02
    5.78818e-04     6.57188e+02     6.57117e+02
    6.06190e-04     6.86859e+02     6.86780e+02
    6.34857e-04     7.17828e+02     7.17743e+02
    6.64879e-04     7.50147e+02     7.50053e+02
    6.96321e-04     7.83868e+02     7.83765e+02
    7.29250e-04     8.19048e+02     8.18935e+02
    7.63736e-04     8.55743e+02     8.55620e+02
    7.99853e-04     8.94012e+02     8.93877e+02
    8.37678e-04     9.33909e+02     9.33762e+02
    8.77291e-04     9.75497e+02     9.75336e+02
    9.18778e-04     1.01884e+03     1.01866e+03
    9.62227e-04     1.06400e+03     1.06380e+03
    1.00773e-03     1.11103e+03     1.11082e+03
    1.05539e-03     1.16002e+03     1.15979e+03
    1.10530e-03     1.21101e+03     1.21076e+03
    1.15756e-03     1.26408e+03     1.26381e+03
    1.21231e-03     1.31929e+03     1.31899e+03
    1.26964e-03     1.37672e+03     1.37639e+03
    1.32968e-03     1.43642e+03     1.43606e+03
    1.39256e-03     1.49847e+03     1.49808e+03
    1.45841e-03     1.56292e+03     1.56250e+03
    1.52738e-03     1.62986e+03     1.62939e+03
    1.59961e-03     1.69933e+03     1.69882e+03
    1.67525e-03     1.77141e+03     1.77086e+03
    1.75447e-03     1.84616e+03     1.84556e+03
    1.83744e-03     1.92363e+03     1.92297e+03
    1.92434e-03     2.00388e+03     2.00316e+03
    2.01534e-03     2.08695e+03     2.08616e+03
    2.11064e-03     2.17289e+03     2.17204e+03
    2.21045e-03     2.26176e+03     2.26083e+03
    2.31499e-03     2.35357e+03     2.35255e+03
    2.42446e-03     2.44835e+03     2.44725e+03
    2.53911e-03     2.54613e+03     2.54493e+03
    2.65919e-03     2.64693e+03     2.64563e+03
    2.78494e-03     2.75076e+03     2.74934e+03
    2.91664e-03     2.85759e+03     2.85604e+03
    3.05457e-03     2.96740e+03     2.96572e+03
    3.19902e-03     3.08018e+03     3.07836e+03
    3.35030e-03     3.19590e+03     3.19392e+03
    3.50873e-03     3.31449e+03     3.31234e+03
    3.67466e-03     3.43586e+03     3.43353e+03
    3.84844e-03     3.55991e+03     3.55738e+03
    4.03043e-03     3.68656e+03     3.68382e+03
    4.22103e-03     3.81569e+03     3.81272e+03
    4.42064e-03     3.94715e+03     3.94394e+03
    4.62969e-03     4.08074e+03     4.07727e+03
    4.84863e-03     4.21626e+03     4.21250e+03
    5.07792e-03     4.35349e+03     4.34944e+03
    5.31805e-03     4.49225e+03     4.48787e+03
    5.56954e-03     4.63222e+03     4.62750e+03
    5.83292e-03     4.77307e+03     4.76799e+03
    6.10876e-03     4.91445e+03     4.90898e+03
    6.39764e-03     5.05601e+03     5.05012e+03
    6.70019e-03     5.19740e+03     5.19107e+03
    7.01704e-03     5.33815e+03     5.33135e+03
    7.34887e-03     5.47773e+03     5.47044e+03
    7.69640e-03     5.61562e+03     5.60780e+03
    8.06036e-03     5.75127e+03     5.74290e+03
    8.44153e-03     5.88416e+03     5.87520e+03
    8.84073e-03     6.01361e+03     6.00404e+03
    9.25881e-03     6.13890e+03     6.12869e+03
    9.69666e-03     6.25929e+03     6.24841e+03
    1.01552e-02     6.37405e+03     6.36246e+03
    1.06354e-02     6.48243e+03     6.47012e+03
    1.11384e-02     6.58358e+03     6.57051e+03
    1.16651e-02     6.67658e+03     6.66273e+03
    1.22168e-02     6.76049e+03     6.74584e+03
    1.27945e-02     6.83440e+03     6.81892e+03
    1.33996e-02     6.89738e+03     6.88107e+03
    1.40332e-02     6.94849e+03     6.93133e+03
    1.46968e-02     6.98678e+03     6.96876e+03
    1.53919e-02     7.01130e+03     6.99242e+03
    1.61197e-02     7.02109e+03     7.00136e+03
    1.68820e-02     7.01524e+03     6.99468e+03
    1.76804e-02     6.99307e+03     6.97171e+03
    1.85165e-02     6.95406e+03     6.93193e+03
    1.93921e-02     6.89768e+03     6.87483e+03
    2.03092e-02     6.82338e+03     6.79988e+03
    2.12696e-02     6.73073e+03     6.70666e+03
    2.22754e-02     6.62005e+03     6.59550e+03
    2.33288e-02     6.49202e+03     6.46709e+03
    2.44320e-02     6.34732e+03     6.32215e+03
    2.55874e-02     6.18665e+03     6.16137e+03
    2.67975e-02     6.01084e+03     5.98561e+03
    2.80647e-02     5.82190e+03     5.79687e+03
    2.93919e-02     5.62236e+03     5.59770e+03
    3.07818e-02     5.41477e+03     5.39066e+03
    3.22375e-02     5.20168e+03     5.17828e+03
    3.37620e-02     4.98569e+03     4.96316e+03
    3.53586e-02     4.76979e+03     4.74828e+03
    3.70307e-02     4.55713e+03     4.53676e+03
    3.87819e-02     4.35087e+03     4.33173e+03
    4.06159e-02     4.15416e+03     4.13630e+03
    4.25366e-02     3.96971e+03     3.95315e+03
    4.45481e-02     3.79892e+03     3.78364e+03
    4.66548e-02     3.64296e+03     3.62889e+03
    4.88611e-02     3.50276e+03     3.48980e+03
    5.11717e-02     3.37753e+03     3.36554e+03
    5.35916e-02     3.26557e+03     3.25440e+03
    5.61260e-02     3.16401e+03     3.15352e+03
    5.87802e-02     3.06896e+03     3.05905e+03
    6.15599e-02     2.97552e+03     2.96618e+03
    6.44710e-02     2.87832e+03     2.86962e+03
    6.75198e-02     2.77204e+03     2.76423e+03
    7.07128e-02     2.65229e+03     2.64574e+03
    7.40568e-02     2.51647e+03     2.51171e+03
    7.75590e-02     2.36460e+03     2.36226e+03
    8.12267e-02     2.19989e+03     2.20058e+03
    8.50679e-02     2.02855e+03     2.03276e+03
    8.90908e-02     1.85908e+03     1.86707e+03
    9.33039e-02     1.70069e+03     1.71240e+03
    9.77162e-02     1.56156e+03     1.57662e+03
    1.02337e-01     1.44701e+03     1.46477e+03
    1.07177e-01     1.35829e+03     1.37791e+03
    1.12245e-01     1.29182e+03     1.31248e+03
    1.17553e-01     1.23949e+03     1.26060e+03
    1.23112e-01     1.19009e+03     1.21150e+03
    1.28934e-01     1.13230e+03     1.15442e+03
    1.35031e-01     1.05896e+03     1.08266e+03
    1.41417e-01     9.70480e+02     9.96739e+02
    1.48105e-01     8.75377e+02     9.04822e+02
    1.55108e-01     7.86426e+02     8.18976e+02
    1.62444e-01     7.14555e+02     7.49432e+02
    1.70125e-01     6.63485e+02     6.99566e+02
    1.78171e-01     6.28019e+02     6.64376e+02
    1.86596e-01     5.96888e+02     6.33260e+02
    1.95420e-01     5.58319e+02     5.95295e+02
    2.04662e-01     5.08872e+02     5.47396e+02
    2.14340e-01     4.56302e+02     4.96806e+02
    2.24476e-01     4.11314e+02     4.53381e+02
    2.35092e-01     3.78935e+02     4.21665e+02
    2.46209e-01     3.55035e+02     3.97786e+02
    2.57852e-01     3.30367e+02     3.73281e+02
    2.70046e-01     3.00612e+02     3.44271e+02
    2.82817e-01     2.70253e+02     3.14853e+02
    2.96191e-01     2.45955e+02     2.91016e+02
    3.10198e-01     2.27345e+02     2.72372e+02
    3.24867e-01     2.09173e+02     2.54200e+02
    3.40230e-01     1.89436e+02     2.34732e+02
    3.56319e-01     1.71433e+02     2.16902e+02
    3.73170e-01     1.56870e+02     2.02186e+02
    3.90817e-01     1.43362e+02     1.88474e+02
    4.09298e-01     1.29852e+02     1.74840e+02
    4.28654e-01     1.17804e+02     1.62556e+02
    4.48925e-01     1.07294e+02     1.51670e+02
    4.70155e-01     9.73148e+01     1.41310e+02
    4.92388e-01     8.81189e+01     1.31688e+02
    5.15673e-01     7.99764e+01     1.23024e+02
    5.40059e-01     7.24057e+01     1.14905e+02
    5.65599e-01     6.55205e+01     1.07420e+02
    5.92346e-01     5.92967e+01     1.00545e+02
    6.20358e-01     5.35930e+01     9.41559e+01
    6.49694e-01     4.84349e+01     8.82690e+01
    6.80418e-01     4.37358e+01     8.28089e+01
    7.12595e-01     3.94727e+01     7.77522e+01
    7.46294e-01     3.56114e+01     7.30676e+01
    7.81586e-01     3.21086e+01     6.87164e+01
    8.18547e-01     2.89344e+01     6.46714e+01
    8.57256e-01     2.60612e+01     6.09076e+01
    8.97795e-01     2.34623e+01     5.74013e+01
    9.40252e-01     2.11121e+01     5.41293e+01
    9.84716e-01     1.89886e+01     5.10726e+01
    1.03128e+00     1.70713e+01     4.82133e+01
    1.08005e+00     1.53401e+01     4.55336e+01
    1.13113e+00     1.37776e+01     4.30185e+01
    1.18462e+00     1.23694e+01     4.06559e+01
    1.24064e+00     1.11015e+01     3.84338e+01
    1.29931e+00     9.95956e+00     3.63400e+01
    1.36075e+00     8.93035e+00     3.43633e+01
    1.42510e+00     8.00403e+00     3.24957e+01
    1.49250e+00     7.17158e+00     3.07297e+01
    1.56308e+00     6.42399e+00     2.90581e+01
    1.63699e+00     5.75226e+00     2.74734e+01
    1.71441e+00     5.14808e+00     2.59689e+01
    1.79548e+00     4.60548e+00     2.45399e+01
    1.88039e+00     4.11895e+00     2.31821e+01
    1.96931e+00     3.68300e+00     2.18910e+01
    2.06244e+00     3.29212e+00     2.06625e+01
    2.15997e+00     2.94128e+00     1.94924e+01
    2.26212e+00     2.62686e+00     1.83781e+01
    2.36909e+00     2.34553e+00     1.73169e+01
    2.48113e+00     2.09397e+00     1.63062e+01
    2.59846e+00     1.86883e+00     1.53434e+01
    2.72134e+00     1.66709e+00     1.44262e+01
    2.85003e+00     1.48660e+00     1.35527e+01
    2.98481e+00     1.32540e+00     1.27213e+01
    3.12596e+00     1.18152e+00     1.19304e+01
    3.27379e+00     1.05296e+00     1.11782e+01
    3.42860e+00     9.37965e-01     1.04632e+01
    3.59074e+00     8.35260e-01     9.78412e+00
    3.76055e+00     7.43687e-01     9.13974e+00
    3.93838e+00     6.62084e-01     8.52880e+00
    4.12463e+00     5.89290e-01     7.95006e+00
    4.31968e+00     5.24259e-01     7.40233e+00
    4.52396e+00     4.66264e-01     6.88452e+00
    4.73789e+00     4.14633e-01     6.39557e+00
    4.96195e+00     3.68691e-01     5.93442e+00
    5.19660e+00     3.27765e-01     5.50000e+00
    5.44234e+00     2.91253e-01     5.09127e+00
    5.69971e+00     2.58739e-01     4.70724e+00
    5.96925e+00     2.29832e-01     4.34692e+00
    6.25153e+00     2.04146e-01     4.00934e+00
    6.54717e+00     1.81292e-01     3.69352e+00
    6.85678e+00     1.60925e-01     3.39848e+00
    7.18104e+00     1.42809e-01     3.12329e+00
    7.52063e+00     1.26723e-01     2.86702e+00
    7.87628e+00     1.12446e-01     2.62875e+00
    8.24875e+00     9.97569e-02     2.40754e+00
    8.63883e+00     8.84619e-02     2.20249e+00
    9.04736e+00     7.84270e-02     2.01273e+00
    9.47521e+00     6.95270e-02     1.83741e+00
    9.92329e+00     6.16369e-02     1.67567e+00
    1.03926e+01     5.46319e-02     1.52665e+00
    1.08840e+01     4.84024e-02     1.38952e+00
    1.13987e+01     4.28734e-02     1.26356e+00
    1.19378e+01     3.79749e-02     1.14803e+00
    1.25023e+01     3.36367e-02     1.04220e+00
    1.30935e+01     2.97886e-02     9.45347e-01
    1.37127e+01     2.63697e-02     8.56785e-01
    1.43612e+01     2.33382e-02     7.75939e-01
    1.50403e+01     2.06549e-02     7.02248e-01
    1.57516e+01     1.82808e-02     6.35148e-01
    1.64965e+01     1.61767e-02     5.74075e-01
    1.72766e+01     1.43088e-02     5.18517e-01
    1.80936e+01     1.26540e-02     4.68059e-01
    1.89492e+01     1.11906e-02     4.22296e-01
    1.98454e+01     9.89688e-03     3.80828e-01
    2.07838e+01     8.75121e-03     3.43250e-01
    2.17667e+01     7.73492e-03     3.09203e-01
    2.27960e+01     6.83535e-03     2.78404e-01
    2.38741e+01     6.04050e-03     2.50583e-01
    2.50031e+01     5.33840e-03     2.25468e-01
    2.61855e+01     4.71706e-03     2.02786e-01
    2.74238e+01     4.16629e-03     1.82298e-01
    2.87206e+01     3.67914e-03     1.63823e-01
    3.00788e+01     3.24904e-03     1.47184e-01
    3.15012e+01     2.86941e-03     1.32207e-01
    3.29909e+01     2.53369e-03     1.18715e-01
    3.45511e+01     2.23630e-03     1.06558e-01
    3.61850e+01     1.97347e-03     9.56194e-02
    3.78962e+01     1.74159e-03     8.57913e-02
    3.96883e+01     1.53706e-03     7.69636e-02
    4.15651e+01     1.35629e-03     6.90272e-02
    4.35307e+01     1.19626e-03     6.18874e-02
    4.55893e+01     1.05492e-03     5.54750e-02
    4.77452e+01     9.30298e-04     4.97232e-02
    5.00031e+01     8.20454e-04     4.45653e-02
    5.23677e+01     7.23433e-04     3.99346e-02
    5.48442e+01     6.37602e-04     3.57741e-02
    5.74377e+01     5.61848e-04     3.20422e-02
    6.01540e+01     4.95109e-04     2.86990e-02
    6.29986e+01     4.36319e-04     2.57044e-02
    6.59778e+01     3.84418e-04     2.30184e-02
    6.90979e+01     3.38525e-04     2.06073e-02
    7.23655e+01     2.98047e-04     1.84467e-02
    7.57877e+01     2.62411e-04     1.65130e-02
    7.93717e+01     2.31046e-04     1.47829e-02
    8.31251e+01     2.03383e-04     1.32328e-02
    8.70561e+01     1.78949e-04     1.18428e-02
    9.11730e+01     1.57413e-04     1.05980e-02
    9.54846e+01     1.38456e-04     9.48401e-03
    1.00000e+02     1.21760e-04     8.48637e-03
