# Matter power spectra at z=2.800000.
# D(z)=0.335394, f(z)=0.976811.
#      k[h/Mpc]         Plin(k)         HaloFit
    1.00000e-04     5.00856e+01     5.00856e+01
    1.04729e-04     5.23805e+01     5.23805e+01
    1.09682e-04     5.47801e+01     5.47802e+01
    1.14868e-04     5.72897e+01     5.72898e+01
    1.20301e-04     5.99144e+01     5.99145e+01
    1.25990e-04     6.26593e+01     6.26593e+01
    1.31948e-04     6.55295e+01     6.55294e+01
    1.38187e-04     6.85307e+01     6.85305e+01
    1.44722e-04     7.16692e+01     7.16688e+01
    1.51566e-04     7.49515e+01     7.49510e+01
    1.58734e-04     7.83840e+01     7.83832e+01
    1.66240e-04     8.19730e+01     8.19720e+01
    1.74102e-04     8.57256e+01     8.57245e+01
    1.82335e-04     8.96496e+01     8.96485e+01
    1.90957e-04     9.37532e+01     9.37519e+01
    1.99988e-04     9.80440e+01     9.80427e+01
    2.09445e-04     1.02530e+02     1.02529e+02
    2.19350e-04     1.07221e+02     1.07219e+02
    2.29723e-04     1.12125e+02     1.12123e+02
    2.40586e-04     1.17253e+02     1.17251e+02
    2.51964e-04     1.22614e+02     1.22612e+02
    2.63879e-04     1.28218e+02     1.28216e+02
    2.76358e-04     1.34077e+02     1.34075e+02
    2.89427e-04     1.40202e+02     1.40200e+02
    3.03114e-04     1.46605e+02     1.46602e+02
    3.17448e-04     1.53299e+02     1.53296e+02
    3.32460e-04     1.60295e+02     1.60291e+02
    3.48182e-04     1.67606e+02     1.67602e+02
    3.64647e-04     1.75248e+02     1.75244e+02
    3.81891e-04     1.83235e+02     1.83230e+02
    3.99951e-04     1.91581e+02     1.91576e+02
    4.18865e-04     2.00302e+02     2.00297e+02
    4.38673e-04     2.09413e+02     2.09407e+02
    4.59417e-04     2.18933e+02     2.18926e+02
    4.81143e-04     2.28878e+02     2.28871e+02
    5.03896e-04     2.39266e+02     2.39258e+02
    5.27725e-04     2.50116e+02     2.50107e+02
    5.52681e-04     2.61445e+02     2.61436e+02
    5.78818e-04     2.73276e+02     2.73265e+02
    6.06190e-04     2.85627e+02     2.85616e+02
    6.34857e-04     2.98522e+02     2.98509e+02
    6.64879e-04     3.11979e+02     3.11965e+02
    6.96321e-04     3.26022e+02     3.26007e+02
    7.29250e-04     3.40673e+02     3.40657e+02
    7.63736e-04     3.55958e+02     3.55940e+02
    7.99853e-04     3.71899e+02     3.71879e+02
    8.37678e-04     3.88520e+02     3.88499e+02
    8.77291e-04     4.05847e+02     4.05823e+02
    9.18778e-04     4.23905e+02     4.23880e+02
    9.62227e-04     4.42722e+02     4.42694e+02
    1.00773e-03     4.62322e+02     4.62292e+02
    1.05539e-03     4.82734e+02     4.82700e+02
    1.10530e-03     5.03983e+02     5.03947e+02
    1.15756e-03     5.26098e+02     5.26058e+02
    1.21231e-03     5.49105e+02     5.49061e+02
    1.26964e-03     5.73033e+02     5.72985e+02
    1.32968e-03     5.97908e+02     5.97856e+02
    1.39256e-03     6.23759e+02     6.23702e+02
    1.45841e-03     6.50614e+02     6.50551e+02
    1.52738e-03     6.78498e+02     6.78430e+02
    1.59961e-03     7.07441e+02     7.07366e+02
    1.67525e-03     7.37469e+02     7.37387e+02
    1.75447e-03     7.68607e+02     7.68518e+02
    1.83744e-03     8.00877e+02     8.00780e+02
    1.92434e-03     8.34302e+02     8.34197e+02
    2.01534e-03     8.68905e+02     8.68790e+02
    2.11064e-03     9.04706e+02     9.04581e+02
    2.21045e-03     9.41722e+02     9.41586e+02
    2.31499e-03     9.79965e+02     9.79816e+02
    2.42446e-03     1.01944e+03     1.01928e+03
    2.53911e-03     1.06017e+03     1.06000e+03
    2.65919e-03     1.10216e+03     1.10197e+03
    2.78494e-03     1.14541e+03     1.14520e+03
    2.91664e-03     1.18990e+03     1.18967e+03
    3.05457e-03     1.23564e+03     1.23539e+03
    3.19902e-03     1.28261e+03     1.28234e+03
    3.35030e-03     1.33081e+03     1.33052e+03
    3.50873e-03     1.38020e+03     1.37988e+03
    3.67466e-03     1.43075e+03     1.43041e+03
    3.84844e-03     1.48242e+03     1.48205e+03
    4.03043e-03     1.53516e+03     1.53476e+03
    4.22103e-03     1.58895e+03     1.58851e+03
    4.42064e-03     1.64370e+03     1.64323e+03
    4.62969e-03     1.69934e+03     1.69883e+03
    4.84863e-03     1.75577e+03     1.75522e+03
    5.07792e-03     1.81293e+03     1.81234e+03
    5.31805e-03     1.87072e+03     1.87008e+03
    5.56954e-03     1.92901e+03     1.92832e+03
    5.83292e-03     1.98767e+03     1.98693e+03
    6.10876e-03     2.04655e+03     2.04575e+03
    6.39764e-03     2.10550e+03     2.10464e+03
    6.70019e-03     2.16437e+03     2.16345e+03
    7.01704e-03     2.22298e+03     2.22199e+03
    7.34887e-03     2.28111e+03     2.28005e+03
    7.69640e-03     2.33853e+03     2.33739e+03
    8.06036e-03     2.39502e+03     2.39381e+03
    8.44153e-03     2.45037e+03     2.44907e+03
    8.84073e-03     2.50429e+03     2.50291e+03
    9.25881e-03     2.55648e+03     2.55501e+03
    9.69666e-03     2.60663e+03     2.60507e+03
    1.01552e-02     2.65444e+03     2.65278e+03
    1.06354e-02     2.69958e+03     2.69783e+03
    1.11384e-02     2.74171e+03     2.73985e+03
    1.16651e-02     2.78044e+03     2.77848e+03
    1.22168e-02     2.81538e+03     2.81332e+03
    1.27945e-02     2.84616e+03     2.84400e+03
    1.33996e-02     2.87239e+03     2.87012e+03
    1.40332e-02     2.89367e+03     2.89131e+03
    1.46968e-02     2.90962e+03     2.90716e+03
    1.53919e-02     2.91984e+03     2.91728e+03
    1.61197e-02     2.92392e+03     2.92127e+03
    1.68820e-02     2.92148e+03     2.91875e+03
    1.76804e-02     2.91225e+03     2.90945e+03
    1.85165e-02     2.89601e+03     2.89314e+03
    1.93921e-02     2.87253e+03     2.86960e+03
    2.03092e-02     2.84159e+03     2.83862e+03
    2.12696e-02     2.80300e+03     2.80001e+03
    2.22754e-02     2.75691e+03     2.75390e+03
    2.33288e-02     2.70359e+03     2.70059e+03
    2.44320e-02     2.64333e+03     2.64036e+03
    2.55874e-02     2.57642e+03     2.57349e+03
    2.67975e-02     2.50320e+03     2.50034e+03
    2.80647e-02     2.42452e+03     2.42175e+03
    2.93919e-02     2.34143e+03     2.33876e+03
    3.07818e-02     2.25498e+03     2.25244e+03
    3.22375e-02     2.16624e+03     2.16385e+03
    3.37620e-02     2.07629e+03     2.07407e+03
    3.53586e-02     1.98638e+03     1.98435e+03
    3.70307e-02     1.89782e+03     1.89599e+03
    3.87819e-02     1.81192e+03     1.81030e+03
    4.06159e-02     1.73000e+03     1.72861e+03
    4.25366e-02     1.65319e+03     1.65204e+03
    4.45481e-02     1.58206e+03     1.58116e+03
    4.66548e-02     1.51711e+03     1.51647e+03
    4.88611e-02     1.45873e+03     1.45835e+03
    5.11717e-02     1.40658e+03     1.40646e+03
    5.35916e-02     1.35995e+03     1.36012e+03
    5.61260e-02     1.31765e+03     1.31811e+03
    5.87802e-02     1.27807e+03     1.27883e+03
    6.15599e-02     1.23915e+03     1.24023e+03
    6.44710e-02     1.19867e+03     1.20009e+03
    6.75198e-02     1.15442e+03     1.15619e+03
    7.07128e-02     1.10454e+03     1.10670e+03
    7.40568e-02     1.04798e+03     1.05053e+03
    7.75590e-02     9.84735e+02     9.87694e+02
    8.12267e-02     9.16141e+02     9.19514e+02
    8.50679e-02     8.44791e+02     8.48578e+02
    8.90908e-02     7.74213e+02     7.78409e+02
    9.33039e-02     7.08252e+02     7.12847e+02
    9.77162e-02     6.50311e+02     6.55290e+02
    1.02337e-01     6.02617e+02     6.07963e+02
    1.07177e-01     5.65666e+02     5.71360e+02
    1.12245e-01     5.37979e+02     5.44006e+02
    1.17553e-01     5.16183e+02     5.22535e+02
    1.23112e-01     4.95612e+02     5.02282e+02
    1.28934e-01     4.71552e+02     4.78528e+02
    1.35031e-01     4.41003e+02     4.48262e+02
    1.41417e-01     4.04156e+02     4.11665e+02
    1.48105e-01     3.64551e+02     3.72280e+02
    1.55108e-01     3.27508e+02     3.35436e+02
    1.62444e-01     2.97576e+02     3.05688e+02
    1.70125e-01     2.76307e+02     2.84593e+02
    1.78171e-01     2.61539e+02     2.69989e+02
    1.86596e-01     2.48574e+02     2.57178e+02
    1.95420e-01     2.32511e+02     2.41240e+02
    2.04662e-01     2.11922e+02     2.20733e+02
    2.14340e-01     1.90028e+02     1.98890e+02
    2.24476e-01     1.71292e+02     1.80193e+02
    2.35092e-01     1.57807e+02     1.66746e+02
    2.46209e-01     1.47857e+02     1.56830e+02
    2.57852e-01     1.37581e+02     1.46568e+02
    2.70046e-01     1.25190e+02     1.34158e+02
    2.82817e-01     1.12547e+02     1.21473e+02
    2.96191e-01     1.02428e+02     1.11309e+02
    3.10198e-01     9.46781e+01     1.03512e+02
    3.24867e-01     8.71102e+01     9.58826e+01
    3.40230e-01     7.88917e+01     8.75807e+01
    3.56319e-01     7.13934e+01     7.99891e+01
    3.73170e-01     6.53297e+01     7.38297e+01
    3.90817e-01     5.97032e+01     6.80982e+01
    4.09298e-01     5.40765e+01     6.23538e+01
    4.28654e-01     4.90596e+01     5.72131e+01
    4.48925e-01     4.46826e+01     5.27078e+01
    4.70155e-01     4.05266e+01     4.84159e+01
    4.92388e-01     3.66976e+01     4.44454e+01
    5.15673e-01     3.33059e+01     4.09084e+01
    5.40059e-01     3.01533e+01     3.76057e+01
    5.65599e-01     2.72860e+01     3.45847e+01
    5.92346e-01     2.46941e+01     3.18363e+01
    6.20358e-01     2.23187e+01     2.93016e+01
    6.49694e-01     2.01707e+01     2.69922e+01
    6.80418e-01     1.82137e+01     2.48721e+01
    7.12595e-01     1.64383e+01     2.29323e+01
    7.46294e-01     1.48303e+01     2.11591e+01
    7.81586e-01     1.33716e+01     1.95346e+01
    8.18547e-01     1.20497e+01     1.80469e+01
    8.57256e-01     1.08531e+01     1.66846e+01
    8.97795e-01     9.77089e+00     1.54371e+01
    9.40252e-01     8.79215e+00     1.42938e+01
    9.84716e-01     7.90780e+00     1.32460e+01
    1.03128e+00     7.10936e+00     1.22853e+01
    1.08005e+00     6.38840e+00     1.14035e+01
    1.13113e+00     5.73770e+00     1.05937e+01
    1.18462e+00     5.15130e+00     9.85001e+00
    1.24064e+00     4.62328e+00     9.16673e+00
    1.29931e+00     4.14773e+00     8.53809e+00
    1.36075e+00     3.71911e+00     7.95873e+00
    1.42510e+00     3.33333e+00     7.42464e+00
    1.49250e+00     2.98664e+00     6.93218e+00
    1.56308e+00     2.67529e+00     6.47771e+00
    1.63699e+00     2.39554e+00     6.05756e+00
    1.71441e+00     2.14392e+00     5.66838e+00
    1.79548e+00     1.91796e+00     5.30773e+00
    1.88039e+00     1.71536e+00     4.97335e+00
    1.96931e+00     1.53381e+00     4.66299e+00
    2.06244e+00     1.37104e+00     4.37440e+00
    2.15997e+00     1.22493e+00     4.10552e+00
    2.26212e+00     1.09398e+00     3.85485e+00
    2.36909e+00     9.76810e-01     3.62102e+00
    2.48113e+00     8.72036e-01     3.40264e+00
    2.59846e+00     7.78270e-01     3.19834e+00
    2.72134e+00     6.94253e-01     3.00686e+00
    2.85003e+00     6.19091e-01     2.82729e+00
    2.98481e+00     5.51962e-01     2.65880e+00
    3.12596e+00     4.92043e-01     2.50053e+00
    3.27379e+00     4.38510e-01     2.35165e+00
    3.42860e+00     3.90619e-01     2.21140e+00
    3.59074e+00     3.47847e-01     2.07922e+00
    3.76055e+00     3.09710e-01     1.95461e+00
    3.93838e+00     2.75726e-01     1.83704e+00
    4.12463e+00     2.45410e-01     1.72600e+00
    4.31968e+00     2.18329e-01     1.62104e+00
    4.52396e+00     1.94179e-01     1.52180e+00
    4.73789e+00     1.72679e-01     1.42797e+00
    4.96195e+00     1.53548e-01     1.33924e+00
    5.19660e+00     1.36505e-01     1.25529e+00
    5.44234e+00     1.21300e-01     1.17582e+00
    5.69971e+00     1.07758e-01     1.10063e+00
    5.96925e+00     9.57183e-02     1.02950e+00
    6.25153e+00     8.50197e-02     9.62232e-01
    6.54717e+00     7.55008e-02     8.98627e-01
    6.85678e+00     6.70185e-02     8.38494e-01
    7.18104e+00     5.94738e-02     7.81685e-01
    7.52063e+00     5.27747e-02     7.28055e-01
    7.87628e+00     4.68291e-02     6.77463e-01
    8.24875e+00     4.15451e-02     6.29767e-01
    8.63883e+00     3.68414e-02     5.84831e-01
    9.04736e+00     3.26623e-02     5.42540e-01
    9.47521e+00     2.89558e-02     5.02782e-01
    9.92329e+00     2.56699e-02     4.65444e-01
    1.03926e+01     2.27526e-02     4.30415e-01
    1.08840e+01     2.01582e-02     3.97585e-01
    1.13987e+01     1.78557e-02     3.66856e-01
    1.19378e+01     1.58157e-02     3.38132e-01
    1.25023e+01     1.40090e-02     3.11314e-01
    1.30935e+01     1.24065e-02     2.86305e-01
    1.37127e+01     1.09826e-02     2.63013e-01
    1.43612e+01     9.72006e-03     2.41349e-01
    1.50403e+01     8.60257e-03     2.21230e-01
    1.57516e+01     7.61381e-03     2.02569e-01
    1.64965e+01     6.73750e-03     1.85281e-01
    1.72766e+01     5.95956e-03     1.69284e-01
    1.80936e+01     5.27039e-03     1.54506e-01
    1.89492e+01     4.66094e-03     1.40875e-01
    1.98454e+01     4.12217e-03     1.28318e-01
    2.07838e+01     3.64504e-03     1.16762e-01
    2.17667e+01     3.22179e-03     1.06141e-01
    2.27960e+01     2.84714e-03     9.63946e-02
    2.38741e+01     2.51611e-03     8.74652e-02
    2.50031e+01     2.22369e-03     7.92944e-02
    2.61855e+01     1.96492e-03     7.18242e-02
    2.74238e+01     1.73554e-03     6.50008e-02
    2.87206e+01     1.53266e-03     5.87791e-02
    3.00788e+01     1.35353e-03     5.31146e-02
    3.15012e+01     1.19543e-03     4.79630e-02
    3.29909e+01     1.05560e-03     4.32799e-02
    3.45511e+01     9.31741e-04     3.90252e-02
    3.61850e+01     8.22267e-04     3.51666e-02
    3.78962e+01     7.25683e-04     3.16722e-02
    3.96883e+01     6.40490e-04     2.85104e-02
    4.15651e+01     5.65194e-04     2.56495e-02
    4.35307e+01     4.98537e-04     2.30615e-02
    4.55893e+01     4.39663e-04     2.07244e-02
    4.77452e+01     3.87757e-04     1.86169e-02
    5.00031e+01     3.42004e-04     1.67177e-02
    5.23677e+01     3.01590e-04     1.50055e-02
    5.48442e+01     2.65835e-04     1.34618e-02
    5.74377e+01     2.34276e-04     1.20723e-02
    6.01540e+01     2.06471e-04     1.08235e-02
    6.29986e+01     1.81977e-04     9.70146e-03
    6.59778e+01     1.60352e-04     8.69266e-03
    6.90979e+01     1.41231e-04     7.78531e-03
    7.23655e+01     1.24365e-04     6.97070e-03
    7.57877e+01     1.09516e-04     6.24040e-03
    7.93717e+01     9.64465e-05     5.58598e-03
    8.31251e+01     8.49187e-05     4.99901e-03
    8.70561e+01     7.47354e-05     4.47224e-03
    9.11730e+01     6.57591e-05     4.00019e-03
    9.54846e+01     5.78571e-05     3.57748e-03
    1.00000e+02     5.08967e-05     3.19877e-03
