# Matter power spectra at z=2.000000.
# D(z)=0.421549, f(z)=0.955214.
#      k[h/Mpc]         Plin(k)         HaloFit
    1.00000e-04     7.92190e+01     7.92189e+01
    1.04729e-04     8.28486e+01     8.28486e+01
    1.09682e-04     8.66440e+01     8.66441e+01
    1.14868e-04     9.06132e+01     9.06134e+01
    1.20301e-04     9.47644e+01     9.47646e+01
    1.25990e-04     9.91057e+01     9.91058e+01
    1.31948e-04     1.03645e+02     1.03645e+02
    1.38187e-04     1.08392e+02     1.08391e+02
    1.44722e-04     1.13356e+02     1.13355e+02
    1.51566e-04     1.18547e+02     1.18545e+02
    1.58734e-04     1.23975e+02     1.23973e+02
    1.66240e-04     1.29652e+02     1.29649e+02
    1.74102e-04     1.35586e+02     1.35583e+02
    1.82335e-04     1.41792e+02     1.41789e+02
    1.90957e-04     1.48282e+02     1.48278e+02
    1.99988e-04     1.55068e+02     1.55064e+02
    2.09445e-04     1.62162e+02     1.62159e+02
    2.19350e-04     1.69580e+02     1.69576e+02
    2.29723e-04     1.77335e+02     1.77331e+02
    2.40586e-04     1.85444e+02     1.85439e+02
    2.51964e-04     1.93922e+02     1.93917e+02
    2.63879e-04     2.02785e+02     2.02779e+02
    2.76358e-04     2.12049e+02     2.12042e+02
    2.89427e-04     2.21734e+02     2.21727e+02
    3.03114e-04     2.31859e+02     2.31851e+02
    3.17448e-04     2.42442e+02     2.42433e+02
    3.32460e-04     2.53504e+02     2.53494e+02
    3.48182e-04     2.65064e+02     2.65053e+02
    3.64647e-04     2.77145e+02     2.77134e+02
    3.81891e-04     2.89772e+02     2.89759e+02
    3.99951e-04     3.02967e+02     3.02953e+02
    4.18865e-04     3.16753e+02     3.16737e+02
    4.38673e-04     3.31156e+02     3.31139e+02
    4.59417e-04     3.46203e+02     3.46184e+02
    4.81143e-04     3.61922e+02     3.61901e+02
    5.03896e-04     3.78341e+02     3.78318e+02
    5.27725e-04     3.95487e+02     3.95463e+02
    5.52681e-04     4.13392e+02     4.13365e+02
    5.78818e-04     4.32086e+02     4.32057e+02
    6.06190e-04     4.51604e+02     4.51572e+02
    6.34857e-04     4.71977e+02     4.71942e+02
    6.64879e-04     4.93239e+02     4.93201e+02
    6.96321e-04     5.15425e+02     5.15383e+02
    7.29250e-04     5.38571e+02     5.38525e+02
    7.63736e-04     5.62715e+02     5.62665e+02
    7.99853e-04     5.87895e+02     5.87840e+02
    8.37678e-04     6.14148e+02     6.14088e+02
    8.77291e-04     6.41513e+02     6.41448e+02
    9.18778e-04     6.70033e+02     6.69961e+02
    9.62227e-04     6.99749e+02     6.99671e+02
    1.00773e-03     7.30703e+02     7.30617e+02
    1.05539e-03     7.62936e+02     7.62843e+02
    1.10530e-03     7.96492e+02     7.96390e+02
    1.15756e-03     8.31414e+02     8.31302e+02
    1.21231e-03     8.67746e+02     8.67624e+02
    1.26964e-03     9.05532e+02     9.05399e+02
    1.32968e-03     9.44816e+02     9.44670e+02
    1.39256e-03     9.85641e+02     9.85482e+02
    1.45841e-03     1.02805e+03     1.02788e+03
    1.52738e-03     1.07209e+03     1.07190e+03
    1.59961e-03     1.11780e+03     1.11759e+03
    1.67525e-03     1.16523e+03     1.16500e+03
    1.75447e-03     1.21441e+03     1.21416e+03
    1.83744e-03     1.26538e+03     1.26511e+03
    1.92434e-03     1.31818e+03     1.31788e+03
    2.01534e-03     1.37283e+03     1.37251e+03
    2.11064e-03     1.42938e+03     1.42903e+03
    2.21045e-03     1.48785e+03     1.48747e+03
    2.31499e-03     1.54825e+03     1.54784e+03
    2.42446e-03     1.61061e+03     1.61016e+03
    2.53911e-03     1.67494e+03     1.67445e+03
    2.65919e-03     1.74126e+03     1.74073e+03
    2.78494e-03     1.80957e+03     1.80899e+03
    2.91664e-03     1.87986e+03     1.87923e+03
    3.05457e-03     1.95210e+03     1.95142e+03
    3.19902e-03     2.02630e+03     2.02556e+03
    3.35030e-03     2.10243e+03     2.10162e+03
    3.50873e-03     2.18045e+03     2.17957e+03
    3.67466e-03     2.26030e+03     2.25935e+03
    3.84844e-03     2.34192e+03     2.34088e+03
    4.03043e-03     2.42523e+03     2.42412e+03
    4.22103e-03     2.51019e+03     2.50898e+03
    4.42064e-03     2.59668e+03     2.59537e+03
    4.62969e-03     2.68457e+03     2.68316e+03
    4.84863e-03     2.77372e+03     2.77220e+03
    5.07792e-03     2.86401e+03     2.86236e+03
    5.31805e-03     2.95529e+03     2.95351e+03
    5.56954e-03     3.04737e+03     3.04545e+03
    5.83292e-03     3.14003e+03     3.13796e+03
    6.10876e-03     3.23303e+03     3.23080e+03
    6.39764e-03     3.32616e+03     3.32377e+03
    6.70019e-03     3.41919e+03     3.41661e+03
    7.01704e-03     3.51179e+03     3.50903e+03
    7.34887e-03     3.60364e+03     3.60067e+03
    7.69640e-03     3.69436e+03     3.69118e+03
    8.06036e-03     3.78362e+03     3.78022e+03
    8.44153e-03     3.87104e+03     3.86741e+03
    8.84073e-03     3.95620e+03     3.95233e+03
    9.25881e-03     4.03862e+03     4.03449e+03
    9.69666e-03     4.11782e+03     4.11342e+03
    1.01552e-02     4.19331e+03     4.18863e+03
    1.06354e-02     4.26461e+03     4.25964e+03
    1.11384e-02     4.33116e+03     4.32589e+03
    1.16651e-02     4.39233e+03     4.38676e+03
    1.22168e-02     4.44754e+03     4.44166e+03
    1.27945e-02     4.49617e+03     4.48997e+03
    1.33996e-02     4.53760e+03     4.53108e+03
    1.40332e-02     4.57123e+03     4.56438e+03
    1.46968e-02     4.59642e+03     4.58925e+03
    1.53919e-02     4.61255e+03     4.60506e+03
    1.61197e-02     4.61900e+03     4.61120e+03
    1.68820e-02     4.61515e+03     4.60705e+03
    1.76804e-02     4.60057e+03     4.59218e+03
    1.85165e-02     4.57491e+03     4.56625e+03
    1.93921e-02     4.53781e+03     4.52891e+03
    2.03092e-02     4.48893e+03     4.47982e+03
    2.12696e-02     4.42798e+03     4.41869e+03
    2.22754e-02     4.35516e+03     4.34574e+03
    2.33288e-02     4.27093e+03     4.26142e+03
    2.44320e-02     4.17574e+03     4.16618e+03
    2.55874e-02     4.07004e+03     4.06050e+03
    2.67975e-02     3.95438e+03     3.94493e+03
    2.80647e-02     3.83008e+03     3.82078e+03
    2.93919e-02     3.69881e+03     3.68972e+03
    3.07818e-02     3.56225e+03     3.55344e+03
    3.22375e-02     3.42207e+03     3.41361e+03
    3.37620e-02     3.27997e+03     3.27193e+03
    3.53586e-02     3.13793e+03     3.13036e+03
    3.70307e-02     2.99803e+03     2.99098e+03
    3.87819e-02     2.86233e+03     2.85585e+03
    4.06159e-02     2.73293e+03     2.72703e+03
    4.25366e-02     2.61158e+03     2.60628e+03
    4.45481e-02     2.49923e+03     2.49453e+03
    4.66548e-02     2.39662e+03     2.39252e+03
    4.88611e-02     2.30439e+03     2.30086e+03
    5.11717e-02     2.22200e+03     2.21900e+03
    5.35916e-02     2.14834e+03     2.14584e+03
    5.61260e-02     2.08153e+03     2.07949e+03
    5.87802e-02     2.01900e+03     2.01740e+03
    6.15599e-02     1.95752e+03     1.95638e+03
    6.44710e-02     1.89357e+03     1.89292e+03
    6.75198e-02     1.82366e+03     1.82358e+03
    7.07128e-02     1.74488e+03     1.74550e+03
    7.40568e-02     1.65552e+03     1.65701e+03
    7.75590e-02     1.55561e+03     1.55816e+03
    8.12267e-02     1.44725e+03     1.45105e+03
    8.50679e-02     1.33454e+03     1.33972e+03
    8.90908e-02     1.22304e+03     1.22970e+03
    9.33039e-02     1.11884e+03     1.12693e+03
    9.77162e-02     1.02731e+03     1.03671e+03
    1.02337e-01     9.51966e+02     9.62462e+02
    1.07177e-01     8.93595e+02     9.04921e+02
    1.12245e-01     8.49858e+02     8.61752e+02
    1.17553e-01     8.15429e+02     8.27699e+02
    1.23112e-01     7.82932e+02     7.95518e+02
    1.28934e-01     7.44923e+02     7.57935e+02
    1.35031e-01     6.96664e+02     7.10348e+02
    1.41417e-01     6.38455e+02     6.53087e+02
    1.48105e-01     5.75889e+02     5.91637e+02
    1.55108e-01     5.17372e+02     5.34195e+02
    1.62444e-01     4.70089e+02     4.87735e+02
    1.70125e-01     4.36490e+02     4.54604e+02
    1.78171e-01     4.13158e+02     4.31444e+02
    1.86596e-01     3.92678e+02     4.11041e+02
    1.95420e-01     3.67303e+02     3.85905e+02
    2.04662e-01     3.34777e+02     3.53882e+02
    2.14340e-01     3.00191e+02     3.19915e+02
    2.24476e-01     2.70594e+02     2.90799e+02
    2.35092e-01     2.49292e+02     2.69693e+02
    2.46209e-01     2.33572e+02     2.53964e+02
    2.57852e-01     2.17340e+02     2.37754e+02
    2.70046e-01     1.97765e+02     2.18364e+02
    2.82817e-01     1.77793e+02     1.98625e+02
    2.96191e-01     1.61807e+02     1.82720e+02
    3.10198e-01     1.49565e+02     1.70400e+02
    3.24867e-01     1.37610e+02     1.58368e+02
    3.40230e-01     1.24626e+02     1.45382e+02
    3.56319e-01     1.12782e+02     1.33500e+02
    3.73170e-01     1.03202e+02     1.23778e+02
    3.90817e-01     9.43146e+01     1.14727e+02
    4.09298e-01     8.54262e+01     1.05694e+02
    4.28654e-01     7.75007e+01     9.75861e+01
    4.48925e-01     7.05862e+01     9.04431e+01
    4.70155e-01     6.40209e+01     8.36446e+01
    4.92388e-01     5.79718e+01     7.73456e+01
    5.15673e-01     5.26143e+01     7.17070e+01
    5.40059e-01     4.76339e+01     6.64354e+01
    5.65599e-01     4.31044e+01     6.15977e+01
    5.92346e-01     3.90099e+01     5.71779e+01
    6.20358e-01     3.52575e+01     5.30891e+01
    6.49694e-01     3.18642e+01     4.93457e+01
    6.80418e-01     2.87727e+01     4.58941e+01
    7.12595e-01     2.59681e+01     4.27195e+01
    7.46294e-01     2.34278e+01     3.98005e+01
    7.81586e-01     2.11234e+01     3.71103e+01
    8.18547e-01     1.90352e+01     3.46302e+01
    8.57256e-01     1.71450e+01     3.23431e+01
    8.97795e-01     1.54353e+01     3.02324e+01
    9.40252e-01     1.38892e+01     2.82822e+01
    9.84716e-01     1.24921e+01     2.64791e+01
    1.03128e+00     1.12308e+01     2.48105e+01
    1.08005e+00     1.00919e+01     2.32640e+01
    1.13113e+00     9.06397e+00     2.18290e+01
    1.18462e+00     8.13760e+00     2.04968e+01
    1.24064e+00     7.30346e+00     1.92587e+01
    1.29931e+00     6.55222e+00     1.81062e+01
    1.36075e+00     5.87513e+00     1.70311e+01
    1.42510e+00     5.26571e+00     1.60276e+01
    1.49250e+00     4.71804e+00     1.50901e+01
    1.56308e+00     4.22621e+00     1.42134e+01
    1.63699e+00     3.78428e+00     1.33920e+01
    1.71441e+00     3.38681e+00     1.26208e+01
    1.79548e+00     3.02985e+00     1.18963e+01
    1.88039e+00     2.70978e+00     1.12153e+01
    1.96931e+00     2.42298e+00     1.05743e+01
    2.06244e+00     2.16584e+00     9.97023e+00
    2.15997e+00     1.93503e+00     9.39991e+00
    2.26212e+00     1.72817e+00     8.86121e+00
    2.36909e+00     1.54308e+00     8.35215e+00
    2.48113e+00     1.37757e+00     7.87071e+00
    2.59846e+00     1.22945e+00     7.41490e+00
    2.72134e+00     1.09673e+00     6.98289e+00
    2.85003e+00     9.77995e-01     6.57336e+00
    2.98481e+00     8.71948e-01     6.18510e+00
    3.12596e+00     7.77290e-01     5.81690e+00
    3.27379e+00     6.92721e-01     5.46752e+00
    3.42860e+00     6.17066e-01     5.13586e+00
    3.59074e+00     5.49499e-01     4.82110e+00
    3.76055e+00     4.89255e-01     4.52246e+00
    3.93838e+00     4.35570e-01     4.23917e+00
    4.12463e+00     3.87680e-01     3.97046e+00
    4.31968e+00     3.44899e-01     3.71561e+00
    4.52396e+00     3.06748e-01     3.47407e+00
    4.73789e+00     2.72783e-01     3.24530e+00
    4.96195e+00     2.42560e-01     3.02876e+00
    5.19660e+00     2.15637e-01     2.82393e+00
    5.44234e+00     1.91616e-01     2.63029e+00
    5.69971e+00     1.70224e-01     2.44742e+00
    5.96925e+00     1.51205e-01     2.27488e+00
    6.25153e+00     1.34305e-01     2.11226e+00
    6.54717e+00     1.19268e-01     1.95914e+00
    6.85678e+00     1.05869e-01     1.81510e+00
    7.18104e+00     9.39508e-02     1.67977e+00
    7.52063e+00     8.33684e-02     1.55278e+00
    7.87628e+00     7.39763e-02     1.43377e+00
    8.24875e+00     6.56291e-02     1.32237e+00
    8.63883e+00     5.81986e-02     1.21822e+00
    9.04736e+00     5.15968e-02     1.12098e+00
    9.47521e+00     4.57416e-02     1.03032e+00
    9.92329e+00     4.05508e-02     9.45920e-01
    1.03926e+01     3.59421e-02     8.67446e-01
    1.08840e+01     3.18437e-02     7.94579e-01
    1.13987e+01     2.82063e-02     7.27026e-01
    1.19378e+01     2.49836e-02     6.64497e-01
    1.25023e+01     2.21296e-02     6.06702e-01
    1.30935e+01     1.95980e-02     5.53352e-01
    1.37127e+01     1.73487e-02     5.04167e-01
    1.43612e+01     1.53543e-02     4.58901e-01
    1.50403e+01     1.35890e-02     4.17305e-01
    1.57516e+01     1.20271e-02     3.79134e-01
    1.64965e+01     1.06428e-02     3.44142e-01
    1.72766e+01     9.41394e-03     3.12099e-01
    1.80936e+01     8.32526e-03     2.82805e-01
    1.89492e+01     7.36252e-03     2.56065e-01
    1.98454e+01     6.51142e-03     2.31686e-01
    2.07838e+01     5.75769e-03     2.09471e-01
    2.17667e+01     5.08908e-03     1.89242e-01
    2.27960e+01     4.49725e-03     1.70853e-01
    2.38741e+01     3.97432e-03     1.54161e-01
    2.50031e+01     3.51240e-03     1.39023e-01
    2.61855e+01     3.10362e-03     1.25296e-01
    2.74238e+01     2.74127e-03     1.12854e-01
    2.87206e+01     2.42078e-03     1.01594e-01
    3.00788e+01     2.13782e-03     9.14183e-02
    3.15012e+01     1.88806e-03     8.22296e-02
    3.29909e+01     1.66719e-03     7.39298e-02
    3.45511e+01     1.47154e-03     6.64325e-02
    3.61850e+01     1.29861e-03     5.96715e-02
    3.78962e+01     1.14605e-03     5.35831e-02
    3.96883e+01     1.01149e-03     4.81031e-02
    4.15651e+01     8.92554e-04     4.31678e-02
    4.35307e+01     7.87264e-04     3.87215e-02
    4.55893e+01     6.94269e-04     3.47227e-02
    4.77452e+01     6.12280e-04     3.11311e-02
    5.00031e+01     5.40010e-04     2.79065e-02
    5.23677e+01     4.76174e-04     2.50088e-02
    5.48442e+01     4.19699e-04     2.24034e-02
    5.74377e+01     3.69853e-04     2.00649e-02
    6.01540e+01     3.25938e-04     1.79687e-02
    6.29986e+01     2.87252e-04     1.60901e-02
    6.59778e+01     2.53099e-04     1.44045e-02
    6.90979e+01     2.22900e-04     1.28911e-02
    7.23655e+01     1.96264e-04     1.15348e-02
    7.57877e+01     1.72814e-04     1.03209e-02
    7.93717e+01     1.52174e-04     9.23474e-03
    8.31251e+01     1.33969e-04     8.26172e-03
    8.70561e+01     1.17889e-04     7.38936e-03
    9.11730e+01     1.03715e-04     6.60835e-03
    9.54846e+01     9.12380e-05     5.90962e-03
    1.00000e+02     8.02483e-05     5.28410e-03
