# Matter power spectra at z=2.600000.
# D(z)=0.353548, f(z)=0.973042.
#      k[h/Mpc]         Plin(k)         HaloFit
    1.00000e-04     5.56716e+01     5.56715e+01
    1.03177e-04     5.73857e+01     5.73857e+01
    1.06455e-04     5.91525e+01     5.91525e+01
    1.09837e-04     6.09735e+01     6.09736e+01
    1.13327e-04     6.28506e+01     6.28507e+01
    1.16928e-04     6.47855e+01     6.47856e+01
    1.20643e-04     6.67801e+01     6.67802e+01
    1.24476e-04     6.88360e+01     6.88361e+01
    1.28430e-04     7.09550e+01     7.09550e+01
    1.32511e-04     7.31390e+01     7.31389e+01
    1.36721e-04     7.53900e+01     7.53898e+01
    1.41065e-04     7.77102e+01     7.77099e+01
    1.45546e-04     8.01018e+01     8.01013e+01
    1.50171e-04     8.25670e+01     8.25663e+01
    1.54942e-04     8.51080e+01     8.51072e+01
    1.59865e-04     8.77270e+01     8.77260e+01
    1.64944e-04     9.04263e+01     9.04251e+01
    1.70184e-04     9.32082e+01     9.32069e+01
    1.75591e-04     9.60754e+01     9.60740e+01
    1.81170e-04     9.90307e+01     9.90293e+01
    1.86926e-04     1.02077e+02     1.02075e+02
    1.92865e-04     1.05217e+02     1.05215e+02
    1.98992e-04     1.08452e+02     1.08451e+02
    2.05315e-04     1.11787e+02     1.11786e+02
    2.11838e-04     1.15224e+02     1.15222e+02
    2.18568e-04     1.18766e+02     1.18764e+02
    2.25512e-04     1.22417e+02     1.22415e+02
    2.32677e-04     1.26179e+02     1.26177e+02
    2.40070e-04     1.30057e+02     1.30055e+02
    2.47697e-04     1.34053e+02     1.34051e+02
    2.55567e-04     1.38172e+02     1.38169e+02
    2.63686e-04     1.42415e+02     1.42413e+02
    2.72064e-04     1.46789e+02     1.46786e+02
    2.80708e-04     1.51295e+02     1.51292e+02
    2.89626e-04     1.55939e+02     1.55936e+02
    2.98828e-04     1.60725e+02     1.60722e+02
    3.08322e-04     1.65657e+02     1.65653e+02
    3.18118e-04     1.70739e+02     1.70735e+02
    3.28225e-04     1.75976e+02     1.75971e+02
    3.38653e-04     1.81370e+02     1.81366e+02
    3.49413e-04     1.86929e+02     1.86924e+02
    3.60514e-04     1.92656e+02     1.92651e+02
    3.71968e-04     1.98557e+02     1.98552e+02
    3.83786e-04     2.04637e+02     2.04632e+02
    3.95979e-04     2.10901e+02     2.10895e+02
    4.08560e-04     2.17354e+02     2.17348e+02
    4.21541e-04     2.24001e+02     2.23994e+02
    4.34934e-04     2.30848e+02     2.30841e+02
    4.48752e-04     2.37902e+02     2.37893e+02
    4.63010e-04     2.45167e+02     2.45158e+02
    4.77720e-04     2.52650e+02     2.52641e+02
    4.92898e-04     2.60358e+02     2.60348e+02
    5.08558e-04     2.68296e+02     2.68286e+02
    5.24715e-04     2.76471e+02     2.76460e+02
    5.41386e-04     2.84889e+02     2.84877e+02
    5.58587e-04     2.93557e+02     2.93544e+02
    5.76334e-04     3.02482e+02     3.02469e+02
    5.94645e-04     3.11672e+02     3.11658e+02
    6.13538e-04     3.21133e+02     3.21118e+02
    6.33031e-04     3.30873e+02     3.30857e+02
    6.53143e-04     3.40899e+02     3.40883e+02
    6.73894e-04     3.51219e+02     3.51201e+02
    6.95305e-04     3.61840e+02     3.61821e+02
    7.17395e-04     3.72771e+02     3.72750e+02
    7.40188e-04     3.84019e+02     3.83997e+02
    7.63705e-04     3.95593e+02     3.95570e+02
    7.87969e-04     4.07502e+02     4.07477e+02
    8.13004e-04     4.19752e+02     4.19727e+02
    8.38834e-04     4.32354e+02     4.32326e+02
    8.65485e-04     4.45314e+02     4.45285e+02
    8.92982e-04     4.58643e+02     4.58612e+02
    9.21354e-04     4.72350e+02     4.72317e+02
    9.50626e-04     4.86443e+02     4.86408e+02
    9.80829e-04     5.00932e+02     5.00895e+02
    1.01199e-03     5.15826e+02     5.15787e+02
    1.04414e-03     5.31134e+02     5.31092e+02
    1.07732e-03     5.46865e+02     5.46820e+02
    1.11155e-03     5.63028e+02     5.62981e+02
    1.14686e-03     5.79634e+02     5.79584e+02
    1.18330e-03     5.96692e+02     5.96638e+02
    1.22089e-03     6.14210e+02     6.14154e+02
    1.25968e-03     6.32200e+02     6.32140e+02
    1.29970e-03     6.50670e+02     6.50606e+02
    1.34100e-03     6.69629e+02     6.69561e+02
    1.38360e-03     6.89088e+02     6.89016e+02
    1.42756e-03     7.09055e+02     7.08979e+02
    1.47292e-03     7.29541e+02     7.29460e+02
    1.51971e-03     7.50554e+02     7.50468e+02
    1.56800e-03     7.72105e+02     7.72014e+02
    1.61781e-03     7.94202e+02     7.94106e+02
    1.66921e-03     8.16856e+02     8.16753e+02
    1.72225e-03     8.40074e+02     8.39965e+02
    1.77697e-03     8.63864e+02     8.63748e+02
    1.83342e-03     8.88234e+02     8.88111e+02
    1.89167e-03     9.13191e+02     9.13061e+02
    1.95177e-03     9.38743e+02     9.38605e+02
    2.01378e-03     9.64898e+02     9.64752e+02
    2.07777e-03     9.91664e+02     9.91509e+02
    2.14378e-03     1.01905e+03     1.01888e+03
    2.21189e-03     1.04705e+03     1.04688e+03
    2.28216e-03     1.07568e+03     1.07549e+03
    2.35467e-03     1.10493e+03     1.10474e+03
    2.42948e-03     1.13482e+03     1.13461e+03
    2.50667e-03     1.16534e+03     1.16512e+03
    2.58631e-03     1.19651e+03     1.19627e+03
    2.66848e-03     1.22831e+03     1.22807e+03
    2.75326e-03     1.26076e+03     1.26050e+03
    2.84074e-03     1.29384e+03     1.29357e+03
    2.93099e-03     1.32756e+03     1.32727e+03
    3.02411e-03     1.36191e+03     1.36160e+03
    3.12019e-03     1.39689e+03     1.39656e+03
    3.21933e-03     1.43250e+03     1.43215e+03
    3.32161e-03     1.46872e+03     1.46836e+03
    3.42714e-03     1.50557e+03     1.50518e+03
    3.53603e-03     1.54301e+03     1.54260e+03
    3.64837e-03     1.58103e+03     1.58060e+03
    3.76428e-03     1.61963e+03     1.61918e+03
    3.88388e-03     1.65879e+03     1.65831e+03
    4.00728e-03     1.69850e+03     1.69799e+03
    4.13459e-03     1.73873e+03     1.73820e+03
    4.26596e-03     1.77948e+03     1.77891e+03
    4.40149e-03     1.82071e+03     1.82011e+03
    4.54133e-03     1.86240e+03     1.86177e+03
    4.68562e-03     1.90451e+03     1.90385e+03
    4.83448e-03     1.94702e+03     1.94632e+03
    4.98808e-03     1.98989e+03     1.98916e+03
    5.14656e-03     2.03311e+03     2.03233e+03
    5.31007e-03     2.07663e+03     2.07581e+03
    5.47878e-03     2.12041e+03     2.11955e+03
    5.65285e-03     2.16440e+03     2.16350e+03
    5.83245e-03     2.20856e+03     2.20761e+03
    6.01775e-03     2.25283e+03     2.25183e+03
    6.20895e-03     2.29716e+03     2.29611e+03
    6.40621e-03     2.34150e+03     2.34040e+03
    6.60975e-03     2.38581e+03     2.38466e+03
    6.81975e-03     2.43001e+03     2.42880e+03
    7.03642e-03     2.47404e+03     2.47277e+03
    7.25998e-03     2.51781e+03     2.51649e+03
    7.49064e-03     2.56126e+03     2.55987e+03
    7.72863e-03     2.60430e+03     2.60284e+03
    7.97417e-03     2.64685e+03     2.64533e+03
    8.22752e-03     2.68885e+03     2.68725e+03
    8.48892e-03     2.73020e+03     2.72853e+03
    8.75863e-03     2.77081e+03     2.76907e+03
    9.03690e-03     2.81057e+03     2.80875e+03
    9.32402e-03     2.84936e+03     2.84747e+03
    9.62025e-03     2.88710e+03     2.88512e+03
    9.92590e-03     2.92367e+03     2.92161e+03
    1.02413e-02     2.95896e+03     2.95682e+03
    1.05666e-02     2.99288e+03     2.99065e+03
    1.09024e-02     3.02529e+03     3.02297e+03
    1.12487e-02     3.05605e+03     3.05365e+03
    1.16061e-02     3.08505e+03     3.08255e+03
    1.19749e-02     3.11214e+03     3.10956e+03
    1.23553e-02     3.13720e+03     3.13452e+03
    1.27479e-02     3.16008e+03     3.15732e+03
    1.31529e-02     3.18067e+03     3.17781e+03
    1.35708e-02     3.19882e+03     3.19587e+03
    1.40019e-02     3.21440e+03     3.21136e+03
    1.44468e-02     3.22727e+03     3.22414e+03
    1.49058e-02     3.23729e+03     3.23407e+03
    1.53794e-02     3.24434e+03     3.24103e+03
    1.58680e-02     3.24826e+03     3.24487e+03
    1.63721e-02     3.24893e+03     3.24546e+03
    1.68923e-02     3.24622e+03     3.24267e+03
    1.74290e-02     3.24005e+03     3.23643e+03
    1.79827e-02     3.23034e+03     3.22665e+03
    1.85541e-02     3.21702e+03     3.21327e+03
    1.91436e-02     3.20002e+03     3.19621e+03
    1.97518e-02     3.17924e+03     3.17538e+03
    2.03793e-02     3.15462e+03     3.15072e+03
    2.10268e-02     3.12610e+03     3.12216e+03
    2.16949e-02     3.09371e+03     3.08975e+03
    2.23841e-02     3.05756e+03     3.05359e+03
    2.30953e-02     3.01775e+03     3.01377e+03
    2.38291e-02     2.97438e+03     2.97040e+03
    2.45862e-02     2.92753e+03     2.92358e+03
    2.53673e-02     2.87732e+03     2.87340e+03
    2.61732e-02     2.82385e+03     2.81996e+03
    2.70048e-02     2.76732e+03     2.76349e+03
    2.78628e-02     2.70810e+03     2.70434e+03
    2.87480e-02     2.64655e+03     2.64286e+03
    2.96614e-02     2.58304e+03     2.57944e+03
    3.06038e-02     2.51792e+03     2.51443e+03
    3.15761e-02     2.45157e+03     2.44819e+03
    3.25793e-02     2.38435e+03     2.38110e+03
    3.36144e-02     2.31664e+03     2.31354e+03
    3.46824e-02     2.24889e+03     2.24594e+03
    3.57843e-02     2.18154e+03     2.17876e+03
    3.69212e-02     2.11506e+03     2.11244e+03
    3.80942e-02     2.04989e+03     2.04745e+03
    3.93045e-02     1.98649e+03     1.98424e+03
    4.05533e-02     1.92530e+03     1.92325e+03
    4.18417e-02     1.86673e+03     1.86487e+03
    4.31711e-02     1.81096e+03     1.80930e+03
    4.45427e-02     1.75816e+03     1.75672e+03
    4.59579e-02     1.70851e+03     1.70728e+03
    4.74180e-02     1.66217e+03     1.66115e+03
    4.89246e-02     1.61920e+03     1.61839e+03
    5.04790e-02     1.57938e+03     1.57879e+03
    5.20827e-02     1.54250e+03     1.54212e+03
    5.37375e-02     1.50827e+03     1.50811e+03
    5.54448e-02     1.47620e+03     1.47626e+03
    5.72064e-02     1.44576e+03     1.44604e+03
    5.90239e-02     1.41630e+03     1.41681e+03
    6.08992e-02     1.38709e+03     1.38783e+03
    6.28340e-02     1.35735e+03     1.35834e+03
    6.48303e-02     1.32630e+03     1.32755e+03
    6.68901e-02     1.29319e+03     1.29471e+03
    6.90153e-02     1.25737e+03     1.25918e+03
    7.12080e-02     1.21835e+03     1.22046e+03
    7.34703e-02     1.17586e+03     1.17829e+03
    7.58046e-02     1.12989e+03     1.13266e+03
    7.82130e-02     1.08075e+03     1.08387e+03
    8.06979e-02     1.02904e+03     1.03253e+03
    8.32618e-02     9.75689e+02     9.79561e+02
    8.59072e-02     9.21840e+02     9.26096e+02
    8.86366e-02     8.68794e+02     8.73436e+02
    9.14527e-02     8.17893e+02     8.22916e+02
    9.43582e-02     7.70399e+02     7.75793e+02
    9.73561e-02     7.27362e+02     7.33110e+02
    1.00449e-01     6.89521e+02     6.95602e+02
    1.03641e-01     6.57211e+02     6.63602e+02
    1.06933e-01     6.30315e+02     6.36991e+02
    1.10331e-01     6.08241e+02     6.15179e+02
    1.13836e-01     5.89942e+02     5.97123e+02
    1.17453e-01     5.73992e+02     5.81402e+02
    1.21185e-01     5.58715e+02     5.66347e+02
    1.25035e-01     5.42406e+02     5.50260e+02
    1.29007e-01     5.23611e+02     5.31690e+02
    1.33106e-01     5.01425e+02     5.09737e+02
    1.37335e-01     4.75720e+02     4.84269e+02
    1.41698e-01     4.47222e+02     4.56012e+02
    1.46200e-01     4.17386e+02     4.26414e+02
    1.50845e-01     3.88075e+02     3.97334e+02
    1.55638e-01     3.61154e+02     3.70627e+02
    1.60583e-01     3.38049e+02     3.47714e+02
    1.65685e-01     3.19423e+02     3.29252e+02
    1.70949e-01     3.05050e+02     3.15016e+02
    1.76380e-01     2.93828e+02     3.03909e+02
    1.81984e-01     2.84133e+02     2.94315e+02
    1.87766e-01     2.74095e+02     2.84373e+02
    1.93731e-01     2.62130e+02     2.72504e+02
    1.99886e-01     2.47670e+02     2.58140e+02
    2.06237e-01     2.31403e+02     2.41968e+02
    2.12789e-01     2.14858e+02     2.25512e+02
    2.19550e-01     1.99661e+02     2.10390e+02
    2.26525e-01     1.86928e+02     1.97715e+02
    2.33722e-01     1.76950e+02     1.87775e+02
    2.41148e-01     1.69053e+02     1.79901e+02
    2.48810e-01     1.61867e+02     1.72727e+02
    2.56715e-01     1.54074e+02     1.64942e+02
    2.64871e-01     1.45109e+02     1.55983e+02
    2.73286e-01     1.35362e+02     1.46238e+02
    2.81969e-01     1.25908e+02     1.36779e+02
    2.90927e-01     1.17769e+02     1.28623e+02
    3.00171e-01     1.11153e+02     1.21978e+02
    3.09707e-01     1.05482e+02     1.16268e+02
    3.19547e-01     9.99104e+01     1.10651e+02
    3.29700e-01     9.39055e+01     1.04598e+02
    3.40175e-01     8.76951e+01     9.83350e+01
    3.50983e-01     8.18682e+01     9.24493e+01
    3.62134e-01     7.68290e+01     8.73432e+01
    3.73639e-01     7.24227e+01     8.28627e+01
    3.85510e-01     6.82022e+01     7.85630e+01
    3.97758e-01     6.39294e+01     7.42075e+01
    4.10396e-01     5.97422e+01     6.99336e+01
    4.23435e-01     5.59046e+01     6.60042e+01
    4.36888e-01     5.24557e+01     6.24584e+01
    4.50768e-01     4.92356e+01     5.91373e+01
    4.65090e-01     4.60965e+01     5.58940e+01
    4.79866e-01     4.30858e+01     5.27760e+01
    4.95112e-01     4.03070e+01     4.98862e+01
    5.10843e-01     3.77529e+01     4.72177e+01
    5.27073e-01     3.53173e+01     4.46652e+01
    5.43819e-01     3.30054e+01     4.22338e+01
    5.61097e-01     3.08457e+01     3.99521e+01
    5.78923e-01     2.88383e+01     3.78205e+01
    5.97316e-01     2.69435e+01     3.57995e+01
    6.16294e-01     2.51595e+01     3.38875e+01
    6.35875e-01     2.34954e+01     3.20938e+01
    6.56077e-01     2.19363e+01     3.04035e+01
    6.76922e-01     2.04712e+01     2.88060e+01
    6.98428e-01     1.90992e+01     2.73005e+01
    7.20618e-01     1.78168e+01     2.58837e+01
    7.43513e-01     1.66172e+01     2.45487e+01
    7.67136e-01     1.54939e+01     2.32895e+01
    7.91509e-01     1.44427e+01     2.21019e+01
    8.16656e-01     1.34595e+01     2.09819e+01
    8.42602e-01     1.25404e+01     1.99258e+01
    8.69373e-01     1.16817e+01     1.89299e+01
    8.96994e-01     1.08794e+01     1.79905e+01
    9.25493e-01     1.01298e+01     1.71040e+01
    9.54897e-01     9.42978e+00     1.62672e+01
    9.85235e-01     8.77637e+00     1.54774e+01
    1.01654e+00     8.16666e+00     1.47318e+01
    1.04883e+00     7.59772e+00     1.40275e+01
    1.08216e+00     7.06669e+00     1.33617e+01
    1.11654e+00     6.57128e+00     1.27323e+01
    1.15201e+00     6.10946e+00     1.21373e+01
    1.18861e+00     5.67917e+00     1.15748e+01
    1.22638e+00     5.27840e+00     1.10427e+01
    1.26534e+00     4.90509e+00     1.05391e+01
    1.30554e+00     4.55722e+00     1.00621e+01
    1.34702e+00     4.23294e+00     9.60984e+00
    1.38982e+00     3.93088e+00     9.18104e+00
    1.43398e+00     3.64976e+00     8.77446e+00
    1.47953e+00     3.38829e+00     8.38886e+00
    1.52654e+00     3.14517e+00     8.02298e+00
    1.57504e+00     2.91912e+00     7.67559e+00
    1.62508e+00     2.70884e+00     7.34544e+00
    1.67671e+00     2.51310e+00     7.03134e+00
    1.72999e+00     2.33097e+00     6.73240e+00
    1.78495e+00     2.16168e+00     6.44786e+00
    1.84166e+00     2.00443e+00     6.17696e+00
    1.90017e+00     1.85842e+00     5.91892e+00
    1.96054e+00     1.72288e+00     5.67298e+00
    2.02283e+00     1.59700e+00     5.43837e+00
    2.08710e+00     1.48001e+00     5.21434e+00
    2.15341e+00     1.37127e+00     5.00027e+00
    2.22183e+00     1.27030e+00     4.79568e+00
    2.29242e+00     1.17662e+00     4.60010e+00
    2.36525e+00     1.08975e+00     4.41307e+00
    2.44040e+00     1.00921e+00     4.23411e+00
    2.51793e+00     9.34532e-01     4.06276e+00
    2.59793e+00     8.65235e-01     3.89855e+00
    2.68047e+00     8.00888e-01     3.74105e+00
    2.76563e+00     7.41187e-01     3.58996e+00
    2.85350e+00     6.85849e-01     3.44499e+00
    2.94416e+00     6.34590e-01     3.30587e+00
    3.03770e+00     5.87125e-01     3.17229e+00
    3.13421e+00     5.43173e-01     3.04398e+00
    3.23379e+00     5.02448e-01     2.92065e+00
    3.33653e+00     4.64677e-01     2.80202e+00
    3.44254e+00     4.29657e-01     2.68789e+00
    3.55191e+00     3.97221e-01     2.57808e+00
    3.66476e+00     3.67204e-01     2.47241e+00
    3.78120e+00     3.39439e-01     2.37072e+00
    3.90133e+00     3.13758e-01     2.27282e+00
    4.02528e+00     2.89996e-01     2.17854e+00
    4.15317e+00     2.67986e-01     2.08771e+00
    4.28512e+00     2.47592e-01     2.00018e+00
    4.42127e+00     2.28716e-01     1.91583e+00
    4.56173e+00     2.11260e-01     1.83456e+00
    4.70667e+00     1.95128e-01     1.75627e+00
    4.85620e+00     1.80222e-01     1.68083e+00
    5.01049e+00     1.66447e-01     1.60814e+00
    5.16968e+00     1.53704e-01     1.53810e+00
    5.33393e+00     1.41906e-01     1.47059e+00
    5.50340e+00     1.30990e-01     1.40554e+00
    5.67825e+00     1.20902e-01     1.34288e+00
    5.85865e+00     1.11585e-01     1.28253e+00
    6.04479e+00     1.02985e-01     1.22443e+00
    6.23684e+00     9.50444e-02     1.16849e+00
    6.43499e+00     8.77090e-02     1.11466e+00
    6.63944e+00     8.09240e-02     1.06284e+00
    6.85039e+00     7.46493e-02     1.01300e+00
    7.06803e+00     6.88530e-02     9.65061e-01
    7.29259e+00     6.35033e-02     9.18981e-01
    7.52429e+00     5.85685e-02     8.74705e-01
    7.76335e+00     5.40168e-02     8.32179e-01
    8.01000e+00     4.98166e-02     7.91348e-01
    8.26449e+00     4.59362e-02     7.52160e-01
    8.52706e+00     4.23490e-02     7.14563e-01
    8.79798e+00     3.90364e-02     6.78513e-01
    9.07750e+00     3.59804e-02     6.43965e-01
    9.36591e+00     3.31631e-02     6.10874e-01
    9.66347e+00     3.05667e-02     5.79195e-01
    9.97050e+00     2.81730e-02     5.48884e-01
    1.02873e+01     2.59643e-02     5.19897e-01
    1.06141e+01     2.39238e-02     4.92188e-01
    1.09513e+01     2.20399e-02     4.65718e-01
    1.12993e+01     2.03027e-02     4.40448e-01
    1.16583e+01     1.87019e-02     4.16338e-01
    1.20287e+01     1.72275e-02     3.93348e-01
    1.24108e+01     1.58695e-02     3.71440e-01
    1.28051e+01     1.46178e-02     3.50573e-01
    1.32120e+01     1.34625e-02     3.30709e-01
    1.36317e+01     1.23960e-02     3.11811e-01
    1.40648e+01     1.14127e-02     2.93846e-01
    1.45117e+01     1.05071e-02     2.76778e-01
    1.49728e+01     9.67337e-03     2.60573e-01
    1.54485e+01     8.90603e-03     2.45198e-01
    1.59393e+01     8.19943e-03     2.30618e-01
    1.64457e+01     7.54795e-03     2.16798e-01
    1.69682e+01     6.94677e-03     2.03707e-01
    1.75073e+01     6.39258e-03     1.91316e-01
    1.80635e+01     5.88226e-03     1.79595e-01
    1.86374e+01     5.41270e-03     1.68516e-01
    1.92296e+01     4.98078e-03     1.58052e-01
    1.98405e+01     4.58338e-03     1.48172e-01
    2.04709e+01     4.21739e-03     1.38850e-01
    2.11213e+01     3.87984e-03     1.30056e-01
    2.17923e+01     3.56869e-03     1.21767e-01
    2.24847e+01     3.28222e-03     1.13960e-01
    2.31991e+01     3.01871e-03     1.06613e-01
    2.39361e+01     2.77645e-03     9.97023e-02
    2.46966e+01     2.55370e-03     9.32061e-02
    2.54813e+01     2.34876e-03     8.71014e-02
    2.62908e+01     2.15993e-03     8.13658e-02
    2.71261e+01     1.98587e-03     7.59795e-02
    2.79880e+01     1.82563e-03     7.09255e-02
    2.88772e+01     1.67827e-03     6.61871e-02
    2.97946e+01     1.54285e-03     6.17473e-02
    3.07413e+01     1.41841e-03     5.75892e-02
    3.17180e+01     1.30402e-03     5.36959e-02
    3.27257e+01     1.19872e-03     5.00507e-02
    3.37654e+01     1.10169e-03     4.66378e-02
    3.48382e+01     1.01237e-03     4.34452e-02
    3.59450e+01     9.30230e-04     4.04609e-02
    3.70871e+01     8.54766e-04     3.76733e-02
    3.82654e+01     7.85459e-04     3.50706e-02
    3.94811e+01     7.21792e-04     3.26410e-02
    4.07355e+01     6.63248e-04     3.03728e-02
