# Matter power spectra at z=4.400000.
# D(z)=0.237258, f(z)=0.990947.
#      k[h/Mpc]         Plin(k)         HaloFit
    1.00000e-04     2.50013e+01     2.50013e+01
    1.03177e-04     2.57712e+01     2.57712e+01
    1.06455e-04     2.65646e+01     2.65646e+01
    1.09837e-04     2.73825e+01     2.73825e+01
    1.13327e-04     2.82255e+01     2.82255e+01
    1.16928e-04     2.90945e+01     2.90945e+01
    1.20643e-04     2.99903e+01     2.99903e+01
    1.24476e-04     3.09137e+01     3.09137e+01
    1.28430e-04     3.18654e+01     3.18654e+01
    1.32511e-04     3.28463e+01     3.28463e+01
    1.36721e-04     3.38573e+01     3.38572e+01
    1.41065e-04     3.48993e+01     3.48993e+01
    1.45546e-04     3.59735e+01     3.59734e+01
    1.50171e-04     3.70807e+01     3.70806e+01
    1.54942e-04     3.82220e+01     3.82219e+01
    1.59865e-04     3.93983e+01     3.93982e+01
    1.64944e-04     4.06107e+01     4.06106e+01
    1.70184e-04     4.18602e+01     4.18600e+01
    1.75591e-04     4.31481e+01     4.31479e+01
    1.81170e-04     4.44755e+01     4.44753e+01
    1.86926e-04     4.58438e+01     4.58436e+01
    1.92865e-04     4.72541e+01     4.72538e+01
    1.98992e-04     4.87076e+01     4.87074e+01
    2.05315e-04     5.02057e+01     5.02054e+01
    2.11838e-04     5.17495e+01     5.17493e+01
    2.18568e-04     5.33406e+01     5.33403e+01
    2.25512e-04     5.49805e+01     5.49802e+01
    2.32677e-04     5.66707e+01     5.66704e+01
    2.40070e-04     5.84127e+01     5.84123e+01
    2.47697e-04     6.02080e+01     6.02077e+01
    2.55567e-04     6.20583e+01     6.20579e+01
    2.63686e-04     6.39649e+01     6.39645e+01
    2.72064e-04     6.59297e+01     6.59292e+01
    2.80708e-04     6.79545e+01     6.79540e+01
    2.89626e-04     7.00412e+01     7.00407e+01
    2.98828e-04     7.21916e+01     7.21911e+01
    3.08322e-04     7.44077e+01     7.44072e+01
    3.18118e-04     7.66913e+01     7.66907e+01
    3.28225e-04     7.90443e+01     7.90437e+01
    3.38653e-04     8.14687e+01     8.14680e+01
    3.49413e-04     8.39667e+01     8.39660e+01
    3.60514e-04     8.65407e+01     8.65400e+01
    3.71968e-04     8.91930e+01     8.91922e+01
    3.83786e-04     9.19257e+01     9.19249e+01
    3.95979e-04     9.47413e+01     9.47404e+01
    4.08560e-04     9.76419e+01     9.76410e+01
    4.21541e-04     1.00630e+02     1.00629e+02
    4.34934e-04     1.03708e+02     1.03707e+02
    4.48752e-04     1.06879e+02     1.06878e+02
    4.63010e-04     1.10146e+02     1.10145e+02
    4.77720e-04     1.13511e+02     1.13509e+02
    4.92898e-04     1.16977e+02     1.16975e+02
    5.08558e-04     1.20547e+02     1.20545e+02
    5.24715e-04     1.24223e+02     1.24222e+02
    5.41386e-04     1.28009e+02     1.28008e+02
    5.58587e-04     1.31908e+02     1.31906e+02
    5.76334e-04     1.35923e+02     1.35921e+02
    5.94645e-04     1.40058e+02     1.40056e+02
    6.13538e-04     1.44315e+02     1.44313e+02
    6.33031e-04     1.48697e+02     1.48695e+02
    6.53143e-04     1.53209e+02     1.53207e+02
    6.73894e-04     1.57854e+02     1.57851e+02
    6.95305e-04     1.62634e+02     1.62631e+02
    7.17395e-04     1.67554e+02     1.67551e+02
    7.40188e-04     1.72618e+02     1.72615e+02
    7.63705e-04     1.77829e+02     1.77826e+02
    7.87969e-04     1.83191e+02     1.83188e+02
    8.13004e-04     1.88708e+02     1.88704e+02
    8.38834e-04     1.94383e+02     1.94379e+02
    8.65485e-04     2.00220e+02     2.00216e+02
    8.92982e-04     2.06224e+02     2.06220e+02
    9.21354e-04     2.12399e+02     2.12394e+02
    9.50626e-04     2.18748e+02     2.18743e+02
    9.80829e-04     2.25276e+02     2.25271e+02
    1.01199e-03     2.31987e+02     2.31982e+02
    1.04414e-03     2.38885e+02     2.38879e+02
    1.07732e-03     2.45974e+02     2.45968e+02
    1.11155e-03     2.53259e+02     2.53252e+02
    1.14686e-03     2.60743e+02     2.60736e+02
    1.18330e-03     2.68431e+02     2.68423e+02
    1.22089e-03     2.76327e+02     2.76319e+02
    1.25968e-03     2.84435e+02     2.84427e+02
    1.29970e-03     2.92760e+02     2.92751e+02
    1.34100e-03     3.01306e+02     3.01296e+02
    1.38360e-03     3.10076e+02     3.10066e+02
    1.42756e-03     3.19076e+02     3.19065e+02
    1.47292e-03     3.28309e+02     3.28298e+02
    1.51971e-03     3.37780e+02     3.37768e+02
    1.56800e-03     3.47492e+02     3.47479e+02
    1.61781e-03     3.57451e+02     3.57437e+02
    1.66921e-03     3.67659e+02     3.67645e+02
    1.72225e-03     3.78121e+02     3.78106e+02
    1.77697e-03     3.88841e+02     3.88825e+02
    1.83342e-03     3.99822e+02     3.99804e+02
    1.89167e-03     4.11066e+02     4.11048e+02
    1.95177e-03     4.22579e+02     4.22559e+02
    2.01378e-03     4.34363e+02     4.34342e+02
    2.07777e-03     4.46422e+02     4.46400e+02
    2.14378e-03     4.58758e+02     4.58735e+02
    2.21189e-03     4.71374e+02     4.71349e+02
    2.28216e-03     4.84270e+02     4.84244e+02
    2.35467e-03     4.97450e+02     4.97422e+02
    2.42948e-03     5.10914e+02     5.10885e+02
    2.50667e-03     5.24665e+02     5.24634e+02
    2.58631e-03     5.38704e+02     5.38671e+02
    2.66848e-03     5.53032e+02     5.52997e+02
    2.75326e-03     5.67649e+02     5.67612e+02
    2.84074e-03     5.82553e+02     5.82514e+02
    2.93099e-03     5.97742e+02     5.97701e+02
    3.02411e-03     6.13217e+02     6.13173e+02
    3.12019e-03     6.28974e+02     6.28928e+02
    3.21933e-03     6.45013e+02     6.44964e+02
    3.32161e-03     6.61333e+02     6.61281e+02
    3.42714e-03     6.77928e+02     6.77874e+02
    3.53603e-03     6.94794e+02     6.94736e+02
    3.64837e-03     7.11923e+02     7.11862e+02
    3.76428e-03     7.29310e+02     7.29245e+02
    3.88388e-03     7.46948e+02     7.46880e+02
    4.00728e-03     7.64832e+02     7.64760e+02
    4.13459e-03     7.82954e+02     7.82879e+02
    4.26596e-03     8.01308e+02     8.01228e+02
    4.40149e-03     8.19879e+02     8.19795e+02
    4.54133e-03     8.38655e+02     8.38567e+02
    4.68562e-03     8.57623e+02     8.57530e+02
    4.83448e-03     8.76770e+02     8.76672e+02
    4.98808e-03     8.96082e+02     8.95979e+02
    5.14656e-03     9.15547e+02     9.15438e+02
    5.31007e-03     9.35150e+02     9.35035e+02
    5.47878e-03     9.54870e+02     9.54750e+02
    5.65285e-03     9.74686e+02     9.74559e+02
    5.83245e-03     9.94574e+02     9.94441e+02
    6.01775e-03     1.01451e+03     1.01437e+03
    6.20895e-03     1.03448e+03     1.03433e+03
    6.40621e-03     1.05445e+03     1.05430e+03
    6.60975e-03     1.07440e+03     1.07424e+03
    6.81975e-03     1.09431e+03     1.09415e+03
    7.03642e-03     1.11414e+03     1.11396e+03
    7.25998e-03     1.13385e+03     1.13367e+03
    7.49064e-03     1.15342e+03     1.15323e+03
    7.72863e-03     1.17280e+03     1.17260e+03
    7.97417e-03     1.19197e+03     1.19176e+03
    8.22752e-03     1.21088e+03     1.21067e+03
    8.48892e-03     1.22951e+03     1.22928e+03
    8.75863e-03     1.24780e+03     1.24757e+03
    9.03690e-03     1.26571e+03     1.26547e+03
    9.32402e-03     1.28319e+03     1.28294e+03
    9.62025e-03     1.30018e+03     1.29993e+03
    9.92590e-03     1.31666e+03     1.31639e+03
    1.02413e-02     1.33256e+03     1.33228e+03
    1.05666e-02     1.34783e+03     1.34755e+03
    1.09024e-02     1.36243e+03     1.36214e+03
    1.12487e-02     1.37629e+03     1.37599e+03
    1.16061e-02     1.38934e+03     1.38904e+03
    1.19749e-02     1.40154e+03     1.40123e+03
    1.23553e-02     1.41283e+03     1.41251e+03
    1.27479e-02     1.42314e+03     1.42281e+03
    1.31529e-02     1.43241e+03     1.43208e+03
    1.35708e-02     1.44058e+03     1.44025e+03
    1.40019e-02     1.44760e+03     1.44726e+03
    1.44468e-02     1.45340e+03     1.45306e+03
    1.49058e-02     1.45791e+03     1.45757e+03
    1.53794e-02     1.46108e+03     1.46075e+03
    1.58680e-02     1.46285e+03     1.46252e+03
    1.63721e-02     1.46316e+03     1.46282e+03
    1.68923e-02     1.46194e+03     1.46161e+03
    1.74290e-02     1.45916e+03     1.45884e+03
    1.79827e-02     1.45479e+03     1.45448e+03
    1.85541e-02     1.44879e+03     1.44849e+03
    1.91436e-02     1.44113e+03     1.44084e+03
    1.97518e-02     1.43177e+03     1.43150e+03
    2.03793e-02     1.42069e+03     1.42043e+03
    2.10268e-02     1.40784e+03     1.40760e+03
    2.16949e-02     1.39326e+03     1.39304e+03
    2.23841e-02     1.37698e+03     1.37678e+03
    2.30953e-02     1.35905e+03     1.35888e+03
    2.38291e-02     1.33951e+03     1.33937e+03
    2.45862e-02     1.31842e+03     1.31830e+03
    2.53673e-02     1.29581e+03     1.29572e+03
    2.61732e-02     1.27173e+03     1.27167e+03
    2.70048e-02     1.24627e+03     1.24624e+03
    2.78628e-02     1.21960e+03     1.21961e+03
    2.87480e-02     1.19188e+03     1.19192e+03
    2.96614e-02     1.16328e+03     1.16335e+03
    3.06038e-02     1.13395e+03     1.13407e+03
    3.15761e-02     1.10407e+03     1.10422e+03
    3.25793e-02     1.07380e+03     1.07399e+03
    3.36144e-02     1.04331e+03     1.04353e+03
    3.46824e-02     1.01279e+03     1.01306e+03
    3.57843e-02     9.82464e+02     9.82771e+02
    3.69212e-02     9.52523e+02     9.52870e+02
    3.80942e-02     9.23173e+02     9.23562e+02
    3.93045e-02     8.94619e+02     8.95051e+02
    4.05533e-02     8.67065e+02     8.67542e+02
    4.18417e-02     8.40685e+02     8.41208e+02
    4.31711e-02     8.15568e+02     8.16141e+02
    4.45427e-02     7.91792e+02     7.92417e+02
    4.59579e-02     7.69432e+02     7.70113e+02
    4.74180e-02     7.48563e+02     7.49306e+02
    4.89246e-02     7.29209e+02     7.30017e+02
    5.04790e-02     7.11278e+02     7.12158e+02
    5.20827e-02     6.94670e+02     6.95628e+02
    5.37375e-02     6.79253e+02     6.80296e+02
    5.54448e-02     6.64810e+02     6.65945e+02
    5.72064e-02     6.51102e+02     6.52336e+02
    5.90239e-02     6.37834e+02     6.39174e+02
    6.08992e-02     6.24678e+02     6.26128e+02
    6.28340e-02     6.11286e+02     6.12850e+02
    6.48303e-02     5.97302e+02     5.98980e+02
    6.68901e-02     5.82391e+02     5.84181e+02
    6.90153e-02     5.66261e+02     5.68157e+02
    7.12080e-02     5.48688e+02     5.50679e+02
    7.34703e-02     5.29551e+02     5.31623e+02
    7.58046e-02     5.08849e+02     5.10984e+02
    7.82130e-02     4.86716e+02     4.88896e+02
    8.06979e-02     4.63431e+02     4.65636e+02
    8.32618e-02     4.39404e+02     4.41615e+02
    8.59072e-02     4.15153e+02     4.17356e+02
    8.86366e-02     3.91264e+02     3.93450e+02
    9.14527e-02     3.68341e+02     3.70507e+02
    9.43582e-02     3.46951e+02     3.49100e+02
    9.73561e-02     3.27570e+02     3.29712e+02
    1.00449e-01     3.10528e+02     3.12681e+02
    1.03641e-01     2.95977e+02     2.98161e+02
    1.06933e-01     2.83864e+02     2.86103e+02
    1.10331e-01     2.73923e+02     2.76241e+02
    1.13836e-01     2.65682e+02     2.68102e+02
    1.17453e-01     2.58499e+02     2.61037e+02
    1.21185e-01     2.51619e+02     2.54281e+02
    1.25035e-01     2.44274e+02     2.47051e+02
    1.29007e-01     2.35809e+02     2.38678e+02
    1.33106e-01     2.25818e+02     2.28739e+02
    1.37335e-01     2.14242e+02     2.17169e+02
    1.41698e-01     2.01408e+02     2.04298e+02
    1.46200e-01     1.87971e+02     1.90793e+02
    1.50845e-01     1.74771e+02     1.77512e+02
    1.55638e-01     1.62647e+02     1.65316e+02
    1.60583e-01     1.52241e+02     1.54865e+02
    1.65685e-01     1.43853e+02     1.46469e+02
    1.70949e-01     1.37380e+02     1.40028e+02
    1.76380e-01     1.32326e+02     1.35039e+02
    1.81984e-01     1.27960e+02     1.30753e+02
    1.87766e-01     1.23439e+02     1.26303e+02
    1.93731e-01     1.18051e+02     1.20950e+02
    1.99886e-01     1.11539e+02     1.14421e+02
    2.06237e-01     1.04213e+02     1.07034e+02
    2.12789e-01     9.67620e+01     9.95015e+01
    2.19550e-01     8.99178e+01     9.25826e+01
    2.26525e-01     8.41835e+01     8.68024e+01
    2.33722e-01     7.96897e+01     8.22999e+01
    2.41148e-01     7.61336e+01     7.87648e+01
    2.48810e-01     7.28971e+01     7.55554e+01
    2.56715e-01     6.93875e+01     7.20519e+01
    2.64871e-01     6.53502e+01     6.79847e+01
    2.73286e-01     6.09605e+01     6.35348e+01
    2.81969e-01     5.67029e+01     5.92107e+01
    2.90927e-01     5.30374e+01     5.54970e+01
    3.00171e-01     5.00580e+01     5.24952e+01
    3.09707e-01     4.75043e+01     4.99334e+01
    3.19547e-01     4.49949e+01     4.74099e+01
    3.29700e-01     4.22906e+01     4.46702e+01
    3.40175e-01     3.94937e+01     4.18219e+01
    3.50983e-01     3.68696e+01     3.91469e+01
    3.62134e-01     3.46001e+01     3.68399e+01
    3.73639e-01     3.26158e+01     3.48283e+01
    3.85510e-01     3.07151e+01     3.28979e+01
    3.97758e-01     2.87908e+01     3.09339e+01
    4.10396e-01     2.69050e+01     2.90028e+01
    4.23435e-01     2.51768e+01     2.72327e+01
    4.36888e-01     2.36235e+01     2.56435e+01
    4.50768e-01     2.21734e+01     2.41582e+01
    4.65090e-01     2.07597e+01     2.27051e+01
    4.79866e-01     1.94038e+01     2.13078e+01
    4.95112e-01     1.81524e+01     2.00171e+01
    5.10843e-01     1.70021e+01     1.88300e+01
    5.27073e-01     1.59053e+01     1.76951e+01
    5.43819e-01     1.48641e+01     1.66150e+01
    5.61097e-01     1.38914e+01     1.56042e+01
    5.78923e-01     1.29874e+01     1.46633e+01
    5.97316e-01     1.21341e+01     1.37728e+01
    6.16294e-01     1.13306e+01     1.29323e+01
    6.35875e-01     1.05812e+01     1.21467e+01
    6.56077e-01     9.87905e+00     1.14087e+01
    6.76922e-01     9.21925e+00     1.07134e+01
    6.98428e-01     8.60137e+00     1.00605e+01
    7.20618e-01     8.02386e+00     9.44856e+00
    7.43513e-01     7.48358e+00     8.87442e+00
    7.67136e-01     6.97771e+00     8.33517e+00
    7.91509e-01     6.50429e+00     7.82889e+00
    8.16656e-01     6.06152e+00     7.35380e+00
    8.42602e-01     5.64762e+00     6.90814e+00
    8.69373e-01     5.26087e+00     6.49021e+00
    8.96994e-01     4.89955e+00     6.09827e+00
    9.25493e-01     4.56198e+00     5.73066e+00
    9.54897e-01     4.24673e+00     5.38593e+00
    9.85235e-01     3.95246e+00     5.06276e+00
    1.01654e+00     3.67788e+00     4.75984e+00
    1.04883e+00     3.42165e+00     4.47585e+00
    1.08216e+00     3.18250e+00     4.20950e+00
    1.11654e+00     2.95939e+00     3.95975e+00
    1.15201e+00     2.75141e+00     3.72569e+00
    1.18861e+00     2.55763e+00     3.50639e+00
    1.22638e+00     2.37714e+00     3.30092e+00
    1.26534e+00     2.20902e+00     3.10837e+00
    1.30554e+00     2.05235e+00     2.92781e+00
    1.34702e+00     1.90631e+00     2.75840e+00
    1.38982e+00     1.77028e+00     2.59953e+00
    1.43398e+00     1.64368e+00     2.45060e+00
    1.47953e+00     1.52593e+00     2.31103e+00
    1.52654e+00     1.41644e+00     2.18022e+00
    1.57504e+00     1.31463e+00     2.05759e+00
    1.62508e+00     1.21993e+00     1.94255e+00
    1.67671e+00     1.13178e+00     1.83453e+00
    1.72999e+00     1.04976e+00     1.73311e+00
    1.78495e+00     9.73518e-01     1.63792e+00
    1.84166e+00     9.02699e-01     1.54861e+00
    1.90017e+00     8.36946e-01     1.46481e+00
    1.96054e+00     7.75904e-01     1.38615e+00
    2.02283e+00     7.19216e-01     1.31227e+00
    2.08710e+00     6.66529e-01     1.24280e+00
    2.15341e+00     6.17557e-01     1.17746e+00
    2.22183e+00     5.72084e-01     1.11602e+00
    2.29242e+00     5.29893e-01     1.05825e+00
    2.36525e+00     4.90771e-01     1.00392e+00
    2.44040e+00     4.54501e-01     9.52830e-01
    2.51793e+00     4.20870e-01     9.04740e-01
    2.59793e+00     3.89661e-01     8.59431e-01
    2.68047e+00     3.60682e-01     8.16700e-01
    2.76563e+00     3.33796e-01     7.76404e-01
    2.85350e+00     3.08874e-01     7.38408e-01
    2.94416e+00     2.85790e-01     7.02575e-01
    3.03770e+00     2.64414e-01     6.68772e-01
    3.13421e+00     2.44620e-01     6.36862e-01
    3.23379e+00     2.26279e-01     6.06711e-01
    3.33653e+00     2.09269e-01     5.78188e-01
    3.44254e+00     1.93498e-01     5.51195e-01
    3.55191e+00     1.78890e-01     5.25650e-01
    3.66476e+00     1.65372e-01     5.01472e-01
    3.78120e+00     1.52868e-01     4.78580e-01
    3.90133e+00     1.41302e-01     4.56892e-01
    4.02528e+00     1.30601e-01     4.36327e-01
    4.15317e+00     1.20689e-01     4.16804e-01
    4.28512e+00     1.11504e-01     3.98255e-01
    4.42127e+00     1.03003e-01     3.80630e-01
    4.56173e+00     9.51422e-02     3.63880e-01
    4.70667e+00     8.78770e-02     3.47956e-01
    4.85620e+00     8.11643e-02     3.32810e-01
    5.01049e+00     7.49604e-02     3.18392e-01
    5.16968e+00     6.92217e-02     3.04653e-01
    5.33393e+00     6.39083e-02     2.91547e-01
    5.50340e+00     5.89925e-02     2.79043e-01
    5.67825e+00     5.44491e-02     2.67112e-01
    5.85865e+00     5.02533e-02     2.55723e-01
    6.04479e+00     4.63800e-02     2.44847e-01
    6.23684e+00     4.28040e-02     2.34455e-01
    6.43499e+00     3.95005e-02     2.24517e-01
    6.63944e+00     3.64448e-02     2.15004e-01
    6.85039e+00     3.36190e-02     2.05894e-01
    7.06803e+00     3.10086e-02     1.97170e-01
    7.29259e+00     2.85993e-02     1.88813e-01
    7.52429e+00     2.63769e-02     1.80806e-01
    7.76335e+00     2.43271e-02     1.73131e-01
    8.01000e+00     2.24355e-02     1.65770e-01
    8.26449e+00     2.06880e-02     1.58704e-01
    8.52706e+00     1.90725e-02     1.51919e-01
    8.79798e+00     1.75806e-02     1.45404e-01
    9.07750e+00     1.62043e-02     1.39147e-01
    9.36591e+00     1.49355e-02     1.33138e-01
    9.66347e+00     1.37662e-02     1.27366e-01
    9.97050e+00     1.26882e-02     1.21819e-01
    1.02873e+01     1.16935e-02     1.16487e-01
    1.06141e+01     1.07745e-02     1.11359e-01
    1.09513e+01     9.92612e-03     1.06428e-01
    1.12993e+01     9.14372e-03     1.01688e-01
    1.16583e+01     8.42279e-03     9.71300e-02
    1.20287e+01     7.75880e-03     9.27486e-02
    1.24108e+01     7.14722e-03     8.85364e-02
    1.28051e+01     6.58349e-03     8.44868e-02
    1.32120e+01     6.06317e-03     8.05927e-02
    1.36317e+01     5.58288e-03     7.68488e-02
    1.40648e+01     5.14005e-03     7.32504e-02
    1.45117e+01     4.73217e-03     6.97928e-02
    1.49728e+01     4.35671e-03     6.64716e-02
    1.54485e+01     4.01112e-03     6.32820e-02
    1.59393e+01     3.69290e-03     6.02195e-02
    1.64457e+01     3.39950e-03     5.72795e-02
    1.69682e+01     3.12875e-03     5.44578e-02
    1.75073e+01     2.87916e-03     5.17509e-02
    1.80635e+01     2.64933e-03     4.91554e-02
    1.86374e+01     2.43786e-03     4.66678e-02
    1.92296e+01     2.24334e-03     4.42847e-02
    1.98405e+01     2.06436e-03     4.20029e-02
    2.04709e+01     1.89953e-03     3.98187e-02
    2.11213e+01     1.74751e-03     3.77290e-02
    2.17923e+01     1.60738e-03     3.57306e-02
    2.24847e+01     1.47837e-03     3.38209e-02
    2.31991e+01     1.35969e-03     3.19970e-02
    2.39361e+01     1.25058e-03     3.02561e-02
    2.46966e+01     1.15026e-03     2.85953e-02
    2.54813e+01     1.05796e-03     2.70118e-02
    2.62908e+01     9.72916e-04     2.55029e-02
    2.71261e+01     8.94525e-04     2.40659e-02
    2.79880e+01     8.22359e-04     2.26983e-02
    2.88772e+01     7.55992e-04     2.13977e-02
    2.97946e+01     6.94999e-04     2.01615e-02
    3.07413e+01     6.38955e-04     1.89875e-02
    3.17180e+01     5.87433e-04     1.78730e-02
    3.27257e+01     5.40010e-04     1.68156e-02
    3.37654e+01     4.96308e-04     1.58130e-02
    3.48382e+01     4.56077e-04     1.48631e-02
    3.59450e+01     4.19083e-04     1.39636e-02
    3.70871e+01     3.85094e-04     1.31126e-02
    3.82654e+01     3.53878e-04     1.23080e-02
    3.94811e+01     3.25202e-04     1.15475e-02
    4.07355e+01     2.98834e-04     1.08292e-02
