# Matter power spectra at z=2.500000.
# D(z)=0.363363, f(z)=0.970838.
#      k[h/Mpc]         Plin(k)         HaloFit
    1.00000e-04     5.88143e+01     5.88142e+01
    1.04729e-04     6.15090e+01     6.15090e+01
    1.09682e-04     6.43269e+01     6.43269e+01
    1.14868e-04     6.72738e+01     6.72739e+01
    1.20301e-04     7.03558e+01     7.03560e+01
    1.25990e-04     7.35790e+01     7.35791e+01
    1.31948e-04     7.69494e+01     7.69493e+01
    1.38187e-04     8.04735e+01     8.04732e+01
    1.44722e-04     8.41590e+01     8.41584e+01
    1.51566e-04     8.80132e+01     8.80124e+01
    1.58734e-04     9.20437e+01     9.20426e+01
    1.66240e-04     9.62581e+01     9.62567e+01
    1.74102e-04     1.00664e+02     1.00663e+02
    1.82335e-04     1.05272e+02     1.05271e+02
    1.90957e-04     1.10091e+02     1.10089e+02
    1.99988e-04     1.15129e+02     1.15127e+02
    2.09445e-04     1.20397e+02     1.20395e+02
    2.19350e-04     1.25904e+02     1.25902e+02
    2.29723e-04     1.31663e+02     1.31660e+02
    2.40586e-04     1.37684e+02     1.37681e+02
    2.51964e-04     1.43979e+02     1.43976e+02
    2.63879e-04     1.50560e+02     1.50557e+02
    2.76358e-04     1.57439e+02     1.57436e+02
    2.89427e-04     1.64631e+02     1.64627e+02
    3.03114e-04     1.72149e+02     1.72145e+02
    3.17448e-04     1.80008e+02     1.80004e+02
    3.32460e-04     1.88222e+02     1.88217e+02
    3.48182e-04     1.96807e+02     1.96801e+02
    3.64647e-04     2.05779e+02     2.05773e+02
    3.81891e-04     2.15156e+02     2.15150e+02
    3.99951e-04     2.24956e+02     2.24948e+02
    4.18865e-04     2.35194e+02     2.35186e+02
    4.38673e-04     2.45891e+02     2.45882e+02
    4.59417e-04     2.57067e+02     2.57057e+02
    4.81143e-04     2.68743e+02     2.68732e+02
    5.03896e-04     2.80938e+02     2.80927e+02
    5.27725e-04     2.93675e+02     2.93662e+02
    5.52681e-04     3.06975e+02     3.06961e+02
    5.78818e-04     3.20862e+02     3.20847e+02
    6.06190e-04     3.35362e+02     3.35345e+02
    6.34857e-04     3.50497e+02     3.50479e+02
    6.64879e-04     3.66294e+02     3.66274e+02
    6.96321e-04     3.82777e+02     3.82755e+02
    7.29250e-04     3.99974e+02     3.99951e+02
    7.63736e-04     4.17914e+02     4.17888e+02
    7.99853e-04     4.36624e+02     4.36596e+02
    8.37678e-04     4.56132e+02     4.56101e+02
    8.77291e-04     4.76468e+02     4.76434e+02
    9.18778e-04     4.97662e+02     4.97625e+02
    9.62227e-04     5.19745e+02     5.19704e+02
    1.00773e-03     5.42748e+02     5.42704e+02
    1.05539e-03     5.66703e+02     5.66654e+02
    1.10530e-03     5.91640e+02     5.91587e+02
    1.15756e-03     6.17593e+02     6.17535e+02
    1.21231e-03     6.44594e+02     6.44530e+02
    1.26964e-03     6.72675e+02     6.72605e+02
    1.32968e-03     7.01868e+02     7.01792e+02
    1.39256e-03     7.32206e+02     7.32124e+02
    1.45841e-03     7.63722e+02     7.63632e+02
    1.52738e-03     7.96448e+02     7.96350e+02
    1.59961e-03     8.30416e+02     8.30308e+02
    1.67525e-03     8.65657e+02     8.65540e+02
    1.75447e-03     9.02203e+02     9.02075e+02
    1.83744e-03     9.40077e+02     9.39938e+02
    1.92434e-03     9.79307e+02     9.79155e+02
    2.01534e-03     1.01992e+03     1.01975e+03
    2.11064e-03     1.06194e+03     1.06176e+03
    2.21045e-03     1.10538e+03     1.10519e+03
    2.31499e-03     1.15027e+03     1.15005e+03
    2.42446e-03     1.19660e+03     1.19637e+03
    2.53911e-03     1.24440e+03     1.24415e+03
    2.65919e-03     1.29368e+03     1.29341e+03
    2.78494e-03     1.34444e+03     1.34414e+03
    2.91664e-03     1.39666e+03     1.39634e+03
    3.05457e-03     1.45035e+03     1.44999e+03
    3.19902e-03     1.50548e+03     1.50509e+03
    3.35030e-03     1.56204e+03     1.56162e+03
    3.50873e-03     1.62001e+03     1.61956e+03
    3.67466e-03     1.67935e+03     1.67885e+03
    3.84844e-03     1.73999e+03     1.73945e+03
    4.03043e-03     1.80190e+03     1.80132e+03
    4.22103e-03     1.86502e+03     1.86439e+03
    4.42064e-03     1.92928e+03     1.92861e+03
    4.62969e-03     1.99459e+03     1.99385e+03
    4.84863e-03     2.06083e+03     2.06004e+03
    5.07792e-03     2.12791e+03     2.12706e+03
    5.31805e-03     2.19573e+03     2.19481e+03
    5.56954e-03     2.26415e+03     2.26316e+03
    5.83292e-03     2.33300e+03     2.33192e+03
    6.10876e-03     2.40210e+03     2.40095e+03
    6.39764e-03     2.47130e+03     2.47006e+03
    6.70019e-03     2.54042e+03     2.53908e+03
    7.01704e-03     2.60922e+03     2.60779e+03
    7.34887e-03     2.67746e+03     2.67593e+03
    7.69640e-03     2.74487e+03     2.74323e+03
    8.06036e-03     2.81119e+03     2.80943e+03
    8.44153e-03     2.87615e+03     2.87427e+03
    8.84073e-03     2.93942e+03     2.93743e+03
    9.25881e-03     3.00067e+03     2.99854e+03
    9.69666e-03     3.05951e+03     3.05724e+03
    1.01552e-02     3.11560e+03     3.11320e+03
    1.06354e-02     3.16858e+03     3.16603e+03
    1.11384e-02     3.21802e+03     3.21532e+03
    1.16651e-02     3.26348e+03     3.26063e+03
    1.22168e-02     3.30450e+03     3.30149e+03
    1.27945e-02     3.34063e+03     3.33747e+03
    1.33996e-02     3.37141e+03     3.36810e+03
    1.40332e-02     3.39640e+03     3.39293e+03
    1.46968e-02     3.41512e+03     3.41149e+03
    1.53919e-02     3.42710e+03     3.42333e+03
    1.61197e-02     3.43189e+03     3.42798e+03
    1.68820e-02     3.42903e+03     3.42498e+03
    1.76804e-02     3.41820e+03     3.41402e+03
    1.85165e-02     3.39913e+03     3.39484e+03
    1.93921e-02     3.37157e+03     3.36718e+03
    2.03092e-02     3.33526e+03     3.33079e+03
    2.12696e-02     3.28997e+03     3.28544e+03
    2.22754e-02     3.23587e+03     3.23129e+03
    2.33288e-02     3.17328e+03     3.16870e+03
    2.44320e-02     3.10255e+03     3.09798e+03
    2.55874e-02     3.02402e+03     3.01948e+03
    2.67975e-02     2.93808e+03     2.93362e+03
    2.80647e-02     2.84573e+03     2.84137e+03
    2.93919e-02     2.74820e+03     2.74398e+03
    3.07818e-02     2.64674e+03     2.64268e+03
    3.22375e-02     2.54258e+03     2.53873e+03
    3.37620e-02     2.43701e+03     2.43339e+03
    3.53586e-02     2.33147e+03     2.32811e+03
    3.70307e-02     2.22752e+03     2.22445e+03
    3.87819e-02     2.12670e+03     2.12393e+03
    4.06159e-02     2.03055e+03     2.02810e+03
    4.25366e-02     1.94039e+03     1.93827e+03
    4.45481e-02     1.85691e+03     1.85513e+03
    4.66548e-02     1.78068e+03     1.77924e+03
    4.88611e-02     1.71215e+03     1.71106e+03
    5.11717e-02     1.65094e+03     1.65019e+03
    5.35916e-02     1.59621e+03     1.59580e+03
    5.61260e-02     1.54657e+03     1.54651e+03
    5.87802e-02     1.50011e+03     1.50039e+03
    6.15599e-02     1.45443e+03     1.45508e+03
    6.44710e-02     1.40692e+03     1.40796e+03
    6.75198e-02     1.35497e+03     1.35644e+03
    7.07128e-02     1.29644e+03     1.29838e+03
    7.40568e-02     1.23004e+03     1.23251e+03
    7.75590e-02     1.15581e+03     1.15885e+03
    8.12267e-02     1.07530e+03     1.07897e+03
    8.50679e-02     9.91557e+02     9.95878e+02
    8.90908e-02     9.08717e+02     9.13707e+02
    9.33039e-02     8.31297e+02     8.36941e+02
    9.77162e-02     7.63290e+02     7.69548e+02
    1.02337e-01     7.07309e+02     7.14118e+02
    1.07177e-01     6.63939e+02     6.71222e+02
    1.12245e-01     6.31442e+02     6.39127e+02
    1.17553e-01     6.05860e+02     6.13895e+02
    1.23112e-01     5.81715e+02     5.90081e+02
    1.28934e-01     5.53474e+02     5.62185e+02
    1.35031e-01     5.17618e+02     5.26711e+02
    1.41417e-01     4.74370e+02     4.83882e+02
    1.48105e-01     4.27884e+02     4.37829e+02
    1.55108e-01     3.84406e+02     3.94756e+02
    1.62444e-01     3.49274e+02     3.59961e+02
    1.70125e-01     3.24310e+02     3.35242e+02
    1.78171e-01     3.06976e+02     3.18077e+02
    1.86596e-01     2.91759e+02     3.02998e+02
    1.95420e-01     2.72905e+02     2.84296e+02
    2.04662e-01     2.48739e+02     2.60309e+02
    2.14340e-01     2.23042e+02     2.34793e+02
    2.24476e-01     2.01051e+02     2.12941e+02
    2.35092e-01     1.85223e+02     1.97186e+02
    2.46209e-01     1.73545e+02     1.85528e+02
    2.57852e-01     1.61483e+02     1.73478e+02
    2.70046e-01     1.46939e+02     1.58959e+02
    2.82817e-01     1.32100e+02     1.44137e+02
    2.96191e-01     1.20223e+02     1.32239e+02
    3.10198e-01     1.11127e+02     1.23083e+02
    3.24867e-01     1.02244e+02     1.14130e+02
    3.40230e-01     9.25976e+01     1.04413e+02
    3.56319e-01     8.37966e+01     9.55259e+01
    3.73170e-01     7.66794e+01     8.82960e+01
    3.90817e-01     7.00755e+01     8.15671e+01
    4.09298e-01     6.34713e+01     7.48329e+01
    4.28654e-01     5.75827e+01     6.88007e+01
    4.48925e-01     5.24453e+01     6.35053e+01
    4.70155e-01     4.75672e+01     5.84624e+01
    4.92388e-01     4.30731e+01     5.37952e+01
    5.15673e-01     3.90922e+01     4.96311e+01
    5.40059e-01     3.53918e+01     4.57416e+01
    5.65599e-01     3.20264e+01     4.21804e+01
    5.92346e-01     2.89842e+01     3.89363e+01
    6.20358e-01     2.61962e+01     3.59417e+01
    6.49694e-01     2.36750e+01     3.32093e+01
    6.80418e-01     2.13780e+01     3.06976e+01
    7.12595e-01     1.92942e+01     2.83958e+01
    7.46294e-01     1.74068e+01     2.62880e+01
    7.81586e-01     1.56946e+01     2.43534e+01
    8.18547e-01     1.41431e+01     2.25780e+01
    8.57256e-01     1.27387e+01     2.09488e+01
    8.97795e-01     1.14684e+01     1.94533e+01
    9.40252e-01     1.03196e+01     1.80793e+01
    9.84716e-01     9.28162e+00     1.68165e+01
    1.03128e+00     8.34447e+00     1.56553e+01
    1.08005e+00     7.49825e+00     1.45863e+01
    1.13113e+00     6.73451e+00     1.36012e+01
    1.18462e+00     6.04623e+00     1.26934e+01
    1.24064e+00     5.42648e+00     1.18563e+01
    1.29931e+00     4.86831e+00     1.10832e+01
    1.36075e+00     4.36523e+00     1.03678e+01
    1.42510e+00     3.91243e+00     9.70554e+00
    1.49250e+00     3.50551e+00     9.09226e+00
    1.56308e+00     3.14007e+00     8.52371e+00
    1.63699e+00     2.81171e+00     7.99568e+00
    1.71441e+00     2.51639e+00     7.50430e+00
    1.79548e+00     2.25117e+00     7.04675e+00
    1.88039e+00     2.01336e+00     6.62044e+00
    1.96931e+00     1.80028e+00     6.22279e+00
    2.06244e+00     1.60923e+00     5.85119e+00
    2.15997e+00     1.43773e+00     5.50328e+00
    2.26212e+00     1.28404e+00     5.17734e+00
    2.36909e+00     1.14651e+00     4.87178e+00
    2.48113e+00     1.02353e+00     4.58503e+00
    2.59846e+00     9.13479e-01     4.31551e+00
    2.72134e+00     8.14865e-01     4.06175e+00
    2.85003e+00     7.26645e-01     3.82273e+00
    2.98481e+00     6.47854e-01     3.59747e+00
    3.12596e+00     5.77525e-01     3.38502e+00
    3.27379e+00     5.14692e-01     3.18441e+00
    3.42860e+00     4.58481e-01     2.99476e+00
    3.59074e+00     4.08278e-01     2.81543e+00
    3.76055e+00     3.63516e-01     2.64584e+00
    3.93838e+00     3.23628e-01     2.48539e+00
    4.12463e+00     2.88045e-01     2.33349e+00
    4.31968e+00     2.56259e-01     2.18960e+00
    4.52396e+00     2.27913e-01     2.05332e+00
    4.73789e+00     2.02678e-01     1.92429e+00
    4.96195e+00     1.80223e-01     1.80211e+00
    5.19660e+00     1.60219e-01     1.68643e+00
    5.44234e+00     1.42372e-01     1.57689e+00
    5.69971e+00     1.26478e-01     1.47324e+00
    5.96925e+00     1.12347e-01     1.37521e+00
    6.25153e+00     9.97896e-02     1.28256e+00
    6.54717e+00     8.86171e-02     1.19503e+00
    6.85678e+00     7.86612e-02     1.11238e+00
    7.18104e+00     6.98058e-02     1.03442e+00
    7.52063e+00     6.19430e-02     9.60952e-01
    7.87628e+00     5.49645e-02     8.91780e-01
    8.24875e+00     4.87625e-02     8.26713e-01
    8.63883e+00     4.32417e-02     7.65566e-01
    9.04736e+00     3.83366e-02     7.08171e-01
    9.47521e+00     3.39862e-02     6.54364e-01
    9.92329e+00     3.01294e-02     6.03980e-01
    1.03926e+01     2.67052e-02     5.56856e-01
    1.08840e+01     2.36601e-02     5.12832e-01
    1.13987e+01     2.09576e-02     4.71762e-01
    1.19378e+01     1.85632e-02     4.33499e-01
    1.25023e+01     1.64426e-02     3.97899e-01
    1.30935e+01     1.45617e-02     3.64817e-01
    1.37127e+01     1.28904e-02     3.34112e-01
    1.43612e+01     1.14086e-02     3.05659e-01
    1.50403e+01     1.00969e-02     2.79330e-01
    1.57516e+01     8.93641e-03     2.55002e-01
    1.64965e+01     7.90786e-03     2.32547e-01
    1.72766e+01     6.99478e-03     2.11849e-01
    1.80936e+01     6.18588e-03     1.92800e-01
    1.89492e+01     5.47056e-03     1.75297e-01
    1.98454e+01     4.83819e-03     1.59235e-01
    2.07838e+01     4.27818e-03     1.44511e-01
    2.17667e+01     3.78140e-03     1.31028e-01
    2.27960e+01     3.34166e-03     1.18701e-01
    2.38741e+01     2.95312e-03     1.07450e-01
    2.50031e+01     2.60991e-03     9.71918e-02
    2.61855e+01     2.30618e-03     8.78453e-02
    2.74238e+01     2.03695e-03     7.93355e-02
    2.87206e+01     1.79882e-03     7.16008e-02
    3.00788e+01     1.58858e-03     6.45811e-02
    3.15012e+01     1.40301e-03     5.82162e-02
    3.29909e+01     1.23890e-03     5.24461e-02
    3.45511e+01     1.09352e-03     4.72170e-02
    3.61850e+01     9.65033e-04     4.24864e-02
    3.78962e+01     8.51673e-04     3.82128e-02
    3.96883e+01     7.51683e-04     3.43549e-02
    4.15651e+01     6.63309e-04     3.08714e-02
    4.35307e+01     5.85074e-04     2.77259e-02
    4.55893e+01     5.15975e-04     2.48906e-02
    4.77452e+01     4.55054e-04     2.23385e-02
    5.00031e+01     4.01354e-04     2.00425e-02
    5.23677e+01     3.53921e-04     1.79756e-02
    5.48442e+01     3.11956e-04     1.61145e-02
    5.74377e+01     2.74917e-04     1.44415e-02
    6.01540e+01     2.42283e-04     1.29397e-02
    6.29986e+01     2.13535e-04     1.15921e-02
    6.59778e+01     1.88156e-04     1.03817e-02
    6.90979e+01     1.65714e-04     9.29390e-03
    7.23655e+01     1.45920e-04     8.31816e-03
    7.57877e+01     1.28494e-04     7.44413e-03
    7.93717e+01     1.13155e-04     6.66150e-03
    8.31251e+01     9.96263e-05     5.96000e-03
    8.70561e+01     8.76755e-05     5.33078e-03
    9.11730e+01     7.71413e-05     4.76721e-03
    9.54846e+01     6.78679e-05     4.26282e-03
    1.00000e+02     5.96998e-05     3.81113e-03
