# Matter power spectra at z=2.700000.
# D(z)=0.344238, f(z)=0.975024.
#      k[h/Mpc]         Plin(k)         HaloFit
    1.00000e-04     5.27699e+01     5.27698e+01
    1.04729e-04     5.51877e+01     5.51877e+01
    1.09682e-04     5.77160e+01     5.77160e+01
    1.14868e-04     6.03601e+01     6.03601e+01
    1.20301e-04     6.31254e+01     6.31255e+01
    1.25990e-04     6.60173e+01     6.60174e+01
    1.31948e-04     6.90413e+01     6.90413e+01
    1.38187e-04     7.22034e+01     7.22031e+01
    1.44722e-04     7.55101e+01     7.55097e+01
    1.51566e-04     7.89683e+01     7.89676e+01
    1.58734e-04     8.25847e+01     8.25838e+01
    1.66240e-04     8.63659e+01     8.63649e+01
    1.74102e-04     9.03196e+01     9.03184e+01
    1.82335e-04     9.44540e+01     9.44527e+01
    1.90957e-04     9.87773e+01     9.87760e+01
    1.99988e-04     1.03298e+02     1.03297e+02
    2.09445e-04     1.08025e+02     1.08023e+02
    2.19350e-04     1.12966e+02     1.12965e+02
    2.29723e-04     1.18133e+02     1.18131e+02
    2.40586e-04     1.23536e+02     1.23534e+02
    2.51964e-04     1.29184e+02     1.29182e+02
    2.63879e-04     1.35089e+02     1.35086e+02
    2.76358e-04     1.41262e+02     1.41259e+02
    2.89427e-04     1.47715e+02     1.47712e+02
    3.03114e-04     1.54461e+02     1.54457e+02
    3.17448e-04     1.61513e+02     1.61509e+02
    3.32460e-04     1.68883e+02     1.68879e+02
    3.48182e-04     1.76586e+02     1.76582e+02
    3.64647e-04     1.84637e+02     1.84632e+02
    3.81891e-04     1.93052e+02     1.93046e+02
    3.99951e-04     2.01845e+02     2.01839e+02
    4.18865e-04     2.11032e+02     2.11026e+02
    4.38673e-04     2.20631e+02     2.20625e+02
    4.59417e-04     2.30660e+02     2.30653e+02
    4.81143e-04     2.41138e+02     2.41129e+02
    5.03896e-04     2.52082e+02     2.52073e+02
    5.27725e-04     2.63511e+02     2.63502e+02
    5.52681e-04     2.75447e+02     2.75436e+02
    5.78818e-04     2.87910e+02     2.87898e+02
    6.06190e-04     3.00922e+02     3.00909e+02
    6.34857e-04     3.14506e+02     3.14492e+02
    6.64879e-04     3.28683e+02     3.28667e+02
    6.96321e-04     3.43476e+02     3.43459e+02
    7.29250e-04     3.58911e+02     3.58892e+02
    7.63736e-04     3.75012e+02     3.74992e+02
    7.99853e-04     3.91805e+02     3.91782e+02
    8.37678e-04     4.09314e+02     4.09290e+02
    8.77291e-04     4.27566e+02     4.27539e+02
    9.18778e-04     4.46589e+02     4.46560e+02
    9.62227e-04     4.66410e+02     4.66378e+02
    1.00773e-03     4.87057e+02     4.87022e+02
    1.05539e-03     5.08558e+02     5.08520e+02
    1.10530e-03     5.30942e+02     5.30900e+02
    1.15756e-03     5.54237e+02     5.54191e+02
    1.21231e-03     5.78472e+02     5.78423e+02
    1.26964e-03     6.03677e+02     6.03623e+02
    1.32968e-03     6.29881e+02     6.29822e+02
    1.39256e-03     6.57112e+02     6.57047e+02
    1.45841e-03     6.85400e+02     6.85329e+02
    1.52738e-03     7.14773e+02     7.14696e+02
    1.59961e-03     7.45261e+02     7.45177e+02
    1.67525e-03     7.76893e+02     7.76801e+02
    1.75447e-03     8.09693e+02     8.09594e+02
    1.83744e-03     8.43687e+02     8.43578e+02
    1.92434e-03     8.78898e+02     8.78779e+02
    2.01534e-03     9.15348e+02     9.15219e+02
    2.11064e-03     9.53062e+02     9.52921e+02
    2.21045e-03     9.92055e+02     9.91901e+02
    2.31499e-03     1.03234e+03     1.03217e+03
    2.42446e-03     1.07393e+03     1.07375e+03
    2.53911e-03     1.11683e+03     1.11663e+03
    2.65919e-03     1.16106e+03     1.16085e+03
    2.78494e-03     1.20662e+03     1.20638e+03
    2.91664e-03     1.25349e+03     1.25324e+03
    3.05457e-03     1.30167e+03     1.30139e+03
    3.19902e-03     1.35115e+03     1.35085e+03
    3.35030e-03     1.40192e+03     1.40160e+03
    3.50873e-03     1.45395e+03     1.45360e+03
    3.67466e-03     1.50720e+03     1.50682e+03
    3.84844e-03     1.56163e+03     1.56121e+03
    4.03043e-03     1.61720e+03     1.61674e+03
    4.22103e-03     1.67385e+03     1.67336e+03
    4.42064e-03     1.73153e+03     1.73100e+03
    4.62969e-03     1.79014e+03     1.78956e+03
    4.84863e-03     1.84959e+03     1.84897e+03
    5.07792e-03     1.90980e+03     1.90913e+03
    5.31805e-03     1.97068e+03     1.96995e+03
    5.56954e-03     2.03208e+03     2.03130e+03
    5.83292e-03     2.09387e+03     2.09304e+03
    6.10876e-03     2.15590e+03     2.15499e+03
    6.39764e-03     2.21800e+03     2.21703e+03
    6.70019e-03     2.28002e+03     2.27898e+03
    7.01704e-03     2.34177e+03     2.34065e+03
    7.34887e-03     2.40300e+03     2.40180e+03
    7.69640e-03     2.46349e+03     2.46221e+03
    8.06036e-03     2.52300e+03     2.52163e+03
    8.44153e-03     2.58131e+03     2.57984e+03
    8.84073e-03     2.63811e+03     2.63655e+03
    9.25881e-03     2.69308e+03     2.69142e+03
    9.69666e-03     2.74591e+03     2.74415e+03
    1.01552e-02     2.79627e+03     2.79439e+03
    1.06354e-02     2.84382e+03     2.84184e+03
    1.11384e-02     2.88820e+03     2.88610e+03
    1.16651e-02     2.92899e+03     2.92678e+03
    1.22168e-02     2.96581e+03     2.96347e+03
    1.27945e-02     2.99823e+03     2.99578e+03
    1.33996e-02     3.02586e+03     3.02329e+03
    1.40332e-02     3.04828e+03     3.04560e+03
    1.46968e-02     3.06508e+03     3.06229e+03
    1.53919e-02     3.07584e+03     3.07294e+03
    1.61197e-02     3.08014e+03     3.07713e+03
    1.68820e-02     3.07758e+03     3.07447e+03
    1.76804e-02     3.06786e+03     3.06466e+03
    1.85165e-02     3.05074e+03     3.04746e+03
    1.93921e-02     3.02601e+03     3.02266e+03
    2.03092e-02     2.99341e+03     2.99001e+03
    2.12696e-02     2.95277e+03     2.94933e+03
    2.22754e-02     2.90421e+03     2.90076e+03
    2.33288e-02     2.84804e+03     2.84459e+03
    2.44320e-02     2.78456e+03     2.78113e+03
    2.55874e-02     2.71407e+03     2.71069e+03
    2.67975e-02     2.63695e+03     2.63363e+03
    2.80647e-02     2.55406e+03     2.55083e+03
    2.93919e-02     2.46653e+03     2.46342e+03
    3.07818e-02     2.37546e+03     2.37249e+03
    3.22375e-02     2.28198e+03     2.27918e+03
    3.37620e-02     2.18723e+03     2.18461e+03
    3.53586e-02     2.09251e+03     2.09010e+03
    3.70307e-02     1.99922e+03     1.99703e+03
    3.87819e-02     1.90873e+03     1.90678e+03
    4.06159e-02     1.82243e+03     1.82074e+03
    4.25366e-02     1.74152e+03     1.74009e+03
    4.45481e-02     1.66659e+03     1.66544e+03
    4.66548e-02     1.59817e+03     1.59730e+03
    4.88611e-02     1.53667e+03     1.53609e+03
    5.11717e-02     1.48173e+03     1.48144e+03
    5.35916e-02     1.43261e+03     1.43262e+03
    5.61260e-02     1.38806e+03     1.38837e+03
    5.87802e-02     1.34635e+03     1.34699e+03
    6.15599e-02     1.30536e+03     1.30632e+03
    6.44710e-02     1.26272e+03     1.26404e+03
    6.75198e-02     1.21610e+03     1.21780e+03
    7.07128e-02     1.16356e+03     1.16567e+03
    7.40568e-02     1.10397e+03     1.10651e+03
    7.75590e-02     1.03735e+03     1.04035e+03
    8.12267e-02     9.65091e+02     9.68564e+02
    8.50679e-02     8.89928e+02     8.93885e+02
    8.90908e-02     8.15579e+02     8.20019e+02
    9.33039e-02     7.46094e+02     7.51006e+02
    9.77162e-02     6.85057e+02     6.90420e+02
    1.02337e-01     6.34815e+02     6.40597e+02
    1.07177e-01     5.95890e+02     6.02058e+02
    1.12245e-01     5.66723e+02     5.73246e+02
    1.17553e-01     5.43763e+02     5.50620e+02
    1.23112e-01     5.22093e+02     5.29273e+02
    1.28934e-01     4.96747e+02     5.04246e+02
    1.35031e-01     4.64566e+02     4.72376e+02
    1.41417e-01     4.25750e+02     4.33859e+02
    1.48105e-01     3.84028e+02     3.92418e+02
    1.55108e-01     3.45006e+02     3.53653e+02
    1.62444e-01     3.13476e+02     3.22350e+02
    1.70125e-01     2.91071e+02     3.00139e+02
    1.78171e-01     2.75513e+02     2.84748e+02
    1.86596e-01     2.61855e+02     2.71241e+02
    1.95420e-01     2.44934e+02     2.54452e+02
    2.04662e-01     2.23245e+02     2.32872e+02
    2.14340e-01     2.00181e+02     2.09896e+02
    2.24476e-01     1.80444e+02     1.90225e+02
    2.35092e-01     1.66239e+02     1.76067e+02
    2.46209e-01     1.55757e+02     1.65616e+02
    2.57852e-01     1.44932e+02     1.54804e+02
    2.70046e-01     1.31879e+02     1.41743e+02
    2.82817e-01     1.18560e+02     1.28399e+02
    2.96191e-01     1.07900e+02     1.17700e+02
    3.10198e-01     9.97367e+01     1.09486e+02
    3.24867e-01     9.17645e+01     1.01449e+02
    3.40230e-01     8.31069e+01     9.27106e+01
    3.56319e-01     7.52080e+01     8.47197e+01
    3.73170e-01     6.88202e+01     7.82309e+01
    3.90817e-01     6.28932e+01     7.21925e+01
    4.09298e-01     5.69659e+01     6.61432e+01
    4.28654e-01     5.16809e+01     6.07281e+01
    4.48925e-01     4.70700e+01     5.59800e+01
    4.70155e-01     4.26919e+01     5.14571e+01
    4.92388e-01     3.86584e+01     4.72724e+01
    5.15673e-01     3.50855e+01     4.35429e+01
    5.40059e-01     3.17644e+01     4.00600e+01
    5.65599e-01     2.87439e+01     3.68733e+01
    5.92346e-01     2.60135e+01     3.39729e+01
    6.20358e-01     2.35112e+01     3.12973e+01
    6.49694e-01     2.12484e+01     2.88584e+01
    6.80418e-01     1.91869e+01     2.66186e+01
    7.12595e-01     1.73166e+01     2.45683e+01
    7.46294e-01     1.56227e+01     2.26929e+01
    7.81586e-01     1.40860e+01     2.09739e+01
    8.18547e-01     1.26935e+01     1.93986e+01
    8.57256e-01     1.14330e+01     1.79552e+01
    8.97795e-01     1.02929e+01     1.66324e+01
    9.40252e-01     9.26191e+00     1.54192e+01
    9.84716e-01     8.33031e+00     1.43063e+01
    1.03128e+00     7.48921e+00     1.32850e+01
    1.08005e+00     6.72973e+00     1.23467e+01
    1.13113e+00     6.04427e+00     1.14841e+01
    1.18462e+00     5.42653e+00     1.06911e+01
    1.24064e+00     4.87030e+00     9.96165e+00
    1.29931e+00     4.36934e+00     9.28972e+00
    1.36075e+00     3.91782e+00     8.66968e+00
    1.42510e+00     3.51143e+00     8.09734e+00
    1.49250e+00     3.14621e+00     7.56887e+00
    1.56308e+00     2.81823e+00     7.08046e+00
    1.63699e+00     2.52353e+00     6.62829e+00
    1.71441e+00     2.25847e+00     6.20881e+00
    1.79548e+00     2.02044e+00     5.81948e+00
    1.88039e+00     1.80701e+00     5.45793e+00
    1.96931e+00     1.61576e+00     5.12181e+00
    2.06244e+00     1.44429e+00     4.80877e+00
    2.15997e+00     1.29037e+00     4.51664e+00
    2.26212e+00     1.15243e+00     4.24385e+00
    2.36909e+00     1.02900e+00     3.98897e+00
    2.48113e+00     9.18629e-01     3.75055e+00
    2.59846e+00     8.19853e-01     3.52715e+00
    2.72134e+00     7.31347e-01     3.31745e+00
    2.85003e+00     6.52169e-01     3.12049e+00
    2.98481e+00     5.81453e-01     2.93541e+00
    3.12596e+00     5.18332e-01     2.76132e+00
    3.27379e+00     4.61939e-01     2.59734e+00
    3.42860e+00     4.11489e-01     2.44266e+00
    3.59074e+00     3.66432e-01     2.29673e+00
    3.76055e+00     3.26258e-01     2.15898e+00
    3.93838e+00     2.90458e-01     2.02890e+00
    4.12463e+00     2.58523e-01     1.90593e+00
    4.31968e+00     2.29994e-01     1.78959e+00
    4.52396e+00     2.04554e-01     1.67953e+00
    4.73789e+00     1.81905e-01     1.57541e+00
    4.96195e+00     1.61752e-01     1.47689e+00
    5.19660e+00     1.43799e-01     1.38364e+00
    5.44234e+00     1.27781e-01     1.29535e+00
    5.69971e+00     1.13515e-01     1.21180e+00
    5.96925e+00     1.00832e-01     1.13277e+00
    6.25153e+00     8.95622e-02     1.05803e+00
    6.54717e+00     7.95347e-02     9.87379e-01
    6.85678e+00     7.05992e-02     9.20603e-01
    7.18104e+00     6.26514e-02     8.57543e-01
    7.52063e+00     5.55944e-02     7.98042e-01
    7.87628e+00     4.93312e-02     7.41944e-01
    8.24875e+00     4.37648e-02     6.89092e-01
    8.63883e+00     3.88098e-02     6.39337e-01
    9.04736e+00     3.44074e-02     5.92550e-01
    9.47521e+00     3.05029e-02     5.48604e-01
    9.92329e+00     2.70414e-02     5.07372e-01
    1.03926e+01     2.39682e-02     4.68726e-01
    1.08840e+01     2.12352e-02     4.32546e-01
    1.13987e+01     1.88097e-02     3.98717e-01
    1.19378e+01     1.66607e-02     3.67129e-01
    1.25023e+01     1.47575e-02     3.37672e-01
    1.30935e+01     1.30693e-02     3.10233e-01
    1.37127e+01     1.15694e-02     2.84706e-01
    1.43612e+01     1.02394e-02     2.60992e-01
    1.50403e+01     9.06216e-03     2.38995e-01
    1.57516e+01     8.02057e-03     2.18618e-01
    1.64965e+01     7.09744e-03     1.99762e-01
    1.72766e+01     6.27794e-03     1.82337e-01
    1.80936e+01     5.55195e-03     1.66259e-01
    1.89492e+01     4.90994e-03     1.51447e-01
    1.98454e+01     4.34238e-03     1.37819e-01
    2.07838e+01     3.83976e-03     1.25294e-01
    2.17667e+01     3.39390e-03     1.13796e-01
    2.27960e+01     2.99923e-03     1.03259e-01
    2.38741e+01     2.65051e-03     9.36162e-02
    2.50031e+01     2.34247e-03     8.48038e-02
    2.61855e+01     2.06988e-03     7.67564e-02
    2.74238e+01     1.82824e-03     6.94141e-02
    2.87206e+01     1.61452e-03     6.27265e-02
    3.00788e+01     1.42582e-03     5.66446e-02
    3.15012e+01     1.25927e-03     5.11192e-02
    3.29909e+01     1.11198e-03     4.61011e-02
    3.45511e+01     9.81498e-04     4.15462e-02
    3.61850e+01     8.66176e-04     3.74188e-02
    3.78962e+01     7.64432e-04     3.36843e-02
    3.96883e+01     6.74689e-04     3.03080e-02
    4.15651e+01     5.95371e-04     2.72552e-02
    4.35307e+01     5.25152e-04     2.44955e-02
    4.55893e+01     4.63134e-04     2.20049e-02
    4.77452e+01     4.08455e-04     1.97605e-02
    5.00031e+01     3.60258e-04     1.77391e-02
    5.23677e+01     3.17685e-04     1.59177e-02
    5.48442e+01     2.80021e-04     1.42762e-02
    5.74377e+01     2.46776e-04     1.27995e-02
    6.01540e+01     2.17486e-04     1.14728e-02
    6.29986e+01     1.91684e-04     1.02814e-02
    6.59778e+01     1.68904e-04     9.21063e-03
    6.90979e+01     1.48762e-04     8.24782e-03
    7.23655e+01     1.30995e-04     7.38369e-03
    7.57877e+01     1.15354e-04     6.60924e-03
    7.93717e+01     1.01586e-04     5.91544e-03
    8.31251e+01     8.94429e-05     5.29331e-03
    8.70561e+01     7.87160e-05     4.73510e-03
    9.11730e+01     6.92605e-05     4.23496e-03
    9.54846e+01     6.09367e-05     3.78719e-03
    1.00000e+02     5.36048e-05     3.38610e-03
