# Matter power spectra at z=4.100000.
# D(z)=0.251075, f(z)=0.989534.
#      k[h/Mpc]         Plin(k)         HaloFit
    1.00000e-04     2.80111e+01     2.80111e+01
    1.03177e-04     2.88737e+01     2.88737e+01
    1.06455e-04     2.97626e+01     2.97626e+01
    1.09837e-04     3.06789e+01     3.06789e+01
    1.13327e-04     3.16234e+01     3.16235e+01
    1.16928e-04     3.25971e+01     3.25971e+01
    1.20643e-04     3.36007e+01     3.36007e+01
    1.24476e-04     3.46352e+01     3.46352e+01
    1.28430e-04     3.57014e+01     3.57014e+01
    1.32511e-04     3.68004e+01     3.68004e+01
    1.36721e-04     3.79331e+01     3.79330e+01
    1.41065e-04     3.91006e+01     3.91005e+01
    1.45546e-04     4.03040e+01     4.03039e+01
    1.50171e-04     4.15445e+01     4.15444e+01
    1.54942e-04     4.28232e+01     4.28230e+01
    1.59865e-04     4.41411e+01     4.41409e+01
    1.64944e-04     4.54994e+01     4.54992e+01
    1.70184e-04     4.68993e+01     4.68991e+01
    1.75591e-04     4.83422e+01     4.83419e+01
    1.81170e-04     4.98294e+01     4.98291e+01
    1.86926e-04     5.13623e+01     5.13620e+01
    1.92865e-04     5.29423e+01     5.29420e+01
    1.98992e-04     5.45708e+01     5.45705e+01
    2.05315e-04     5.62492e+01     5.62488e+01
    2.11838e-04     5.79788e+01     5.79785e+01
    2.18568e-04     5.97614e+01     5.97610e+01
    2.25512e-04     6.15986e+01     6.15982e+01
    2.32677e-04     6.34922e+01     6.34918e+01
    2.40070e-04     6.54438e+01     6.54433e+01
    2.47697e-04     6.74552e+01     6.74547e+01
    2.55567e-04     6.95280e+01     6.95275e+01
    2.63686e-04     7.16641e+01     7.16635e+01
    2.72064e-04     7.38652e+01     7.38647e+01
    2.80708e-04     7.61336e+01     7.61330e+01
    2.89626e-04     7.84714e+01     7.84707e+01
    2.98828e-04     8.08805e+01     8.08798e+01
    3.08322e-04     8.33632e+01     8.33625e+01
    3.18118e-04     8.59215e+01     8.59207e+01
    3.28225e-04     8.85575e+01     8.85567e+01
    3.38653e-04     9.12735e+01     9.12726e+01
    3.49413e-04     9.40720e+01     9.40711e+01
    3.60514e-04     9.69556e+01     9.69546e+01
    3.71968e-04     9.99268e+01     9.99257e+01
    3.83786e-04     1.02988e+02     1.02987e+02
    3.95979e-04     1.06142e+02     1.06141e+02
    4.08560e-04     1.09392e+02     1.09390e+02
    4.21541e-04     1.12739e+02     1.12738e+02
    4.34934e-04     1.16187e+02     1.16186e+02
    4.48752e-04     1.19739e+02     1.19738e+02
    4.63010e-04     1.23399e+02     1.23397e+02
    4.77720e-04     1.27168e+02     1.27166e+02
    4.92898e-04     1.31051e+02     1.31049e+02
    5.08558e-04     1.35049e+02     1.35047e+02
    5.24715e-04     1.39168e+02     1.39165e+02
    5.41386e-04     1.43408e+02     1.43406e+02
    5.58587e-04     1.47776e+02     1.47773e+02
    5.76334e-04     1.52273e+02     1.52271e+02
    5.94645e-04     1.56904e+02     1.56901e+02
    6.13538e-04     1.61672e+02     1.61669e+02
    6.33031e-04     1.66581e+02     1.66578e+02
    6.53143e-04     1.71635e+02     1.71631e+02
    6.73894e-04     1.76836e+02     1.76833e+02
    6.95305e-04     1.82190e+02     1.82187e+02
    7.17395e-04     1.87701e+02     1.87697e+02
    7.40188e-04     1.93372e+02     1.93368e+02
    7.63705e-04     1.99209e+02     1.99204e+02
    7.87969e-04     2.05214e+02     2.05209e+02
    8.13004e-04     2.11392e+02     2.11387e+02
    8.38834e-04     2.17747e+02     2.17742e+02
    8.65485e-04     2.24285e+02     2.24279e+02
    8.92982e-04     2.31008e+02     2.31002e+02
    9.21354e-04     2.37923e+02     2.37917e+02
    9.50626e-04     2.45033e+02     2.45026e+02
    9.80829e-04     2.52343e+02     2.52336e+02
    1.01199e-03     2.59858e+02     2.59850e+02
    1.04414e-03     2.67582e+02     2.67574e+02
    1.07732e-03     2.75520e+02     2.75512e+02
    1.11155e-03     2.83677e+02     2.83668e+02
    1.14686e-03     2.92057e+02     2.92048e+02
    1.18330e-03     3.00666e+02     3.00655e+02
    1.22089e-03     3.09507e+02     3.09496e+02
    1.25968e-03     3.18586e+02     3.18574e+02
    1.29970e-03     3.27907e+02     3.27895e+02
    1.34100e-03     3.37476e+02     3.37463e+02
    1.38360e-03     3.47296e+02     3.47282e+02
    1.42756e-03     3.57373e+02     3.57359e+02
    1.47292e-03     3.67711e+02     3.67696e+02
    1.51971e-03     3.78316e+02     3.78299e+02
    1.56800e-03     3.89191e+02     3.89173e+02
    1.61781e-03     4.00341e+02     4.00323e+02
    1.66921e-03     4.11772e+02     4.11752e+02
    1.72225e-03     4.23487e+02     4.23466e+02
    1.77697e-03     4.35490e+02     4.35468e+02
    1.83342e-03     4.47785e+02     4.47762e+02
    1.89167e-03     4.60376e+02     4.60352e+02
    1.95177e-03     4.73268e+02     4.73241e+02
    2.01378e-03     4.86463e+02     4.86435e+02
    2.07777e-03     4.99966e+02     4.99936e+02
    2.14378e-03     5.13780e+02     5.13748e+02
    2.21189e-03     5.27907e+02     5.27873e+02
    2.28216e-03     5.42348e+02     5.42313e+02
    2.35467e-03     5.57107e+02     5.57069e+02
    2.42948e-03     5.72184e+02     5.72144e+02
    2.50667e-03     5.87582e+02     5.87540e+02
    2.58631e-03     6.03303e+02     6.03258e+02
    2.66848e-03     6.19347e+02     6.19300e+02
    2.75326e-03     6.35715e+02     6.35665e+02
    2.84074e-03     6.52404e+02     6.52351e+02
    2.93099e-03     6.69413e+02     6.69358e+02
    3.02411e-03     6.86741e+02     6.86682e+02
    3.12019e-03     7.04386e+02     7.04324e+02
    3.21933e-03     7.22347e+02     7.22281e+02
    3.32161e-03     7.40622e+02     7.40552e+02
    3.42714e-03     7.59205e+02     7.59132e+02
    3.53603e-03     7.78091e+02     7.78014e+02
    3.64837e-03     7.97273e+02     7.97191e+02
    3.76428e-03     8.16743e+02     8.16656e+02
    3.88388e-03     8.36495e+02     8.36403e+02
    4.00728e-03     8.56521e+02     8.56424e+02
    4.13459e-03     8.76816e+02     8.76713e+02
    4.26596e-03     8.97368e+02     8.97260e+02
    4.40149e-03     9.18165e+02     9.18051e+02
    4.54133e-03     9.39191e+02     9.39071e+02
    4.68562e-03     9.60431e+02     9.60305e+02
    4.83448e-03     9.81872e+02     9.81739e+02
    4.98808e-03     1.00350e+03     1.00336e+03
    5.14656e-03     1.02530e+03     1.02515e+03
    5.31007e-03     1.04725e+03     1.04709e+03
    5.47878e-03     1.06933e+03     1.06917e+03
    5.65285e-03     1.09152e+03     1.09135e+03
    5.83245e-03     1.11379e+03     1.11361e+03
    6.01775e-03     1.13612e+03     1.13593e+03
    6.20895e-03     1.15848e+03     1.15828e+03
    6.40621e-03     1.18084e+03     1.18064e+03
    6.60975e-03     1.20319e+03     1.20297e+03
    6.81975e-03     1.22548e+03     1.22526e+03
    7.03642e-03     1.24769e+03     1.24745e+03
    7.25998e-03     1.26976e+03     1.26951e+03
    7.49064e-03     1.29167e+03     1.29141e+03
    7.72863e-03     1.31338e+03     1.31311e+03
    7.97417e-03     1.33484e+03     1.33456e+03
    8.22752e-03     1.35602e+03     1.35573e+03
    8.48892e-03     1.37688e+03     1.37657e+03
    8.75863e-03     1.39736e+03     1.39704e+03
    9.03690e-03     1.41742e+03     1.41709e+03
    9.32402e-03     1.43699e+03     1.43665e+03
    9.62025e-03     1.45603e+03     1.45567e+03
    9.92590e-03     1.47447e+03     1.47410e+03
    1.02413e-02     1.49228e+03     1.49189e+03
    1.05666e-02     1.50938e+03     1.50899e+03
    1.09024e-02     1.52573e+03     1.52532e+03
    1.12487e-02     1.54125e+03     1.54083e+03
    1.16061e-02     1.55587e+03     1.55544e+03
    1.19749e-02     1.56953e+03     1.56909e+03
    1.23553e-02     1.58217e+03     1.58172e+03
    1.27479e-02     1.59371e+03     1.59325e+03
    1.31529e-02     1.60409e+03     1.60362e+03
    1.35708e-02     1.61325e+03     1.61277e+03
    1.40019e-02     1.62111e+03     1.62062e+03
    1.44468e-02     1.62760e+03     1.62710e+03
    1.49058e-02     1.63265e+03     1.63216e+03
    1.53794e-02     1.63621e+03     1.63571e+03
    1.58680e-02     1.63819e+03     1.63768e+03
    1.63721e-02     1.63853e+03     1.63802e+03
    1.68923e-02     1.63716e+03     1.63666e+03
    1.74290e-02     1.63405e+03     1.63355e+03
    1.79827e-02     1.62916e+03     1.62866e+03
    1.85541e-02     1.62244e+03     1.62195e+03
    1.91436e-02     1.61386e+03     1.61338e+03
    1.97518e-02     1.60338e+03     1.60292e+03
    2.03793e-02     1.59097e+03     1.59052e+03
    2.10268e-02     1.57658e+03     1.57615e+03
    2.16949e-02     1.56025e+03     1.55983e+03
    2.23841e-02     1.54202e+03     1.54163e+03
    2.30953e-02     1.52194e+03     1.52157e+03
    2.38291e-02     1.50006e+03     1.49972e+03
    2.45862e-02     1.47644e+03     1.47613e+03
    2.53673e-02     1.45112e+03     1.45084e+03
    2.61732e-02     1.42415e+03     1.42390e+03
    2.70048e-02     1.39564e+03     1.39543e+03
    2.78628e-02     1.36578e+03     1.36560e+03
    2.87480e-02     1.33473e+03     1.33459e+03
    2.96614e-02     1.30270e+03     1.30260e+03
    3.06038e-02     1.26986e+03     1.26980e+03
    3.15761e-02     1.23640e+03     1.23638e+03
    3.25793e-02     1.20250e+03     1.20252e+03
    3.36144e-02     1.16835e+03     1.16842e+03
    3.46824e-02     1.13418e+03     1.13430e+03
    3.57843e-02     1.10022e+03     1.10038e+03
    3.69212e-02     1.06669e+03     1.06690e+03
    3.80942e-02     1.03382e+03     1.03408e+03
    3.93045e-02     1.00184e+03     1.00215e+03
    4.05533e-02     9.70988e+02     9.71347e+02
    4.18417e-02     9.41446e+02     9.41860e+02
    4.31711e-02     9.13319e+02     9.13791e+02
    4.45427e-02     8.86693e+02     8.87226e+02
    4.59579e-02     8.61653e+02     8.62252e+02
    4.74180e-02     8.38283e+02     8.38952e+02
    4.89246e-02     8.16609e+02     8.17353e+02
    5.04790e-02     7.96529e+02     7.97356e+02
    5.20827e-02     7.77931e+02     7.78846e+02
    5.37375e-02     7.60666e+02     7.61676e+02
    5.54448e-02     7.44491e+02     7.45605e+02
    5.72064e-02     7.29141e+02     7.30365e+02
    5.90239e-02     7.14283e+02     7.15625e+02
    6.08992e-02     6.99550e+02     7.01015e+02
    6.28340e-02     6.84552e+02     6.86145e+02
    6.48303e-02     6.68893e+02     6.70614e+02
    6.68901e-02     6.52195e+02     6.54042e+02
    6.90153e-02     6.34131e+02     6.36100e+02
    7.12080e-02     6.14452e+02     6.16532e+02
    7.34703e-02     5.93021e+02     5.95198e+02
    7.58046e-02     5.69837e+02     5.72095e+02
    7.82130e-02     5.45052e+02     5.47371e+02
    8.06979e-02     5.18976e+02     5.21336e+02
    8.32618e-02     4.92069e+02     4.94453e+02
    8.59072e-02     4.64911e+02     4.67303e+02
    8.86366e-02     4.38159e+02     4.40550e+02
    9.14527e-02     4.12489e+02     4.14876e+02
    9.43582e-02     3.88536e+02     3.90922e+02
    9.73561e-02     3.66831e+02     3.69228e+02
    1.00449e-01     3.47747e+02     3.50170e+02
    1.03641e-01     3.31452e+02     3.33921e+02
    1.06933e-01     3.17887e+02     3.20428e+02
    1.10331e-01     3.06754e+02     3.09390e+02
    1.13836e-01     2.97526e+02     3.00280e+02
    1.17453e-01     2.89481e+02     2.92370e+02
    1.21185e-01     2.81777e+02     2.84806e+02
    1.25035e-01     2.73552e+02     2.76712e+02
    1.29007e-01     2.64073e+02     2.67339e+02
    1.33106e-01     2.52884e+02     2.56217e+02
    1.37335e-01     2.39920e+02     2.43273e+02
    1.41698e-01     2.25548e+02     2.28875e+02
    1.46200e-01     2.10500e+02     2.13770e+02
    1.50845e-01     1.95718e+02     1.98916e+02
    1.55638e-01     1.82141e+02     1.85276e+02
    1.60583e-01     1.70489e+02     1.73588e+02
    1.65685e-01     1.61095e+02     1.64195e+02
    1.70949e-01     1.53846e+02     1.56988e+02
    1.76380e-01     1.48186e+02     1.51402e+02
    1.81984e-01     1.43297e+02     1.46602e+02
    1.87766e-01     1.38234e+02     1.41619e+02
    1.93731e-01     1.32200e+02     1.35627e+02
    1.99886e-01     1.24907e+02     1.28323e+02
    2.06237e-01     1.16704e+02     1.20062e+02
    2.12789e-01     1.08359e+02     1.11639e+02
    2.19550e-01     1.00695e+02     1.03902e+02
    2.26525e-01     9.42734e+01     9.74373e+01
    2.33722e-01     8.92410e+01     9.23990e+01
    2.41148e-01     8.52587e+01     8.84404e+01
    2.48810e-01     8.16343e+01     8.48455e+01
    2.56715e-01     7.77041e+01     8.09229e+01
    2.64871e-01     7.31829e+01     7.63720e+01
    2.73286e-01     6.82670e+01     7.13951e+01
    2.81969e-01     6.34991e+01     6.65591e+01
    2.90927e-01     5.93942e+01     6.24046e+01
    3.00171e-01     5.60578e+01     5.90443e+01
    3.09707e-01     5.31979e+01     5.61750e+01
    3.19547e-01     5.03878e+01     5.33487e+01
    3.29700e-01     4.73594e+01     5.02822e+01
    3.40175e-01     4.42272e+01     4.70951e+01
    3.50983e-01     4.12886e+01     4.41018e+01
    3.62134e-01     3.87472e+01     4.15191e+01
    3.73639e-01     3.65250e+01     3.92658e+01
    3.85510e-01     3.43964e+01     3.71034e+01
    3.97758e-01     3.22415e+01     3.49042e+01
    4.10396e-01     3.01298e+01     3.27420e+01
    4.23435e-01     2.81943e+01     3.07597e+01
    4.36888e-01     2.64550e+01     2.89791e+01
    4.50768e-01     2.48310e+01     2.73145e+01
    4.65090e-01     2.32478e+01     2.56864e+01
    4.79866e-01     2.17295e+01     2.41207e+01
    4.95112e-01     2.03280e+01     2.26741e+01
    5.10843e-01     1.90399e+01     2.13431e+01
    5.27073e-01     1.78116e+01     2.00705e+01
    5.43819e-01     1.66456e+01     1.88592e+01
    5.61097e-01     1.55564e+01     1.77255e+01
    5.78923e-01     1.45440e+01     1.66697e+01
    5.97316e-01     1.35884e+01     1.56703e+01
    6.16294e-01     1.26887e+01     1.47269e+01
    6.35875e-01     1.18495e+01     1.38447e+01
    6.56077e-01     1.10631e+01     1.30158e+01
    6.76922e-01     1.03242e+01     1.22346e+01
    6.98428e-01     9.63230e+00     1.15008e+01
    7.20618e-01     8.98557e+00     1.08128e+01
    7.43513e-01     8.38054e+00     1.01670e+01
    7.67136e-01     7.81403e+00     9.56020e+00
    7.91509e-01     7.28387e+00     8.99028e+00
    8.16656e-01     6.78803e+00     8.45521e+00
    8.42602e-01     6.32452e+00     7.95306e+00
    8.69373e-01     5.89141e+00     7.48188e+00
    8.96994e-01     5.48679e+00     7.03978e+00
    9.25493e-01     5.10876e+00     6.62487e+00
    9.54897e-01     4.75572e+00     6.23555e+00
    9.85235e-01     4.42619e+00     5.87034e+00
    1.01654e+00     4.11869e+00     5.52778e+00
    1.04883e+00     3.83176e+00     5.20639e+00
    1.08216e+00     3.56394e+00     4.90473e+00
    1.11654e+00     3.31410e+00     4.62166e+00
    1.15201e+00     3.08118e+00     4.35613e+00
    1.18861e+00     2.86418e+00     4.10712e+00
    1.22638e+00     2.66206e+00     3.87360e+00
    1.26534e+00     2.47379e+00     3.65454e+00
    1.30554e+00     2.29834e+00     3.44890e+00
    1.34702e+00     2.13480e+00     3.25577e+00
    1.38982e+00     1.98246e+00     3.07444e+00
    1.43398e+00     1.84069e+00     2.90426e+00
    1.47953e+00     1.70882e+00     2.74456e+00
    1.52654e+00     1.58621e+00     2.59470e+00
    1.57504e+00     1.47220e+00     2.45401e+00
    1.62508e+00     1.36615e+00     2.32184e+00
    1.67671e+00     1.26743e+00     2.19755e+00
    1.72999e+00     1.17558e+00     2.08069e+00
    1.78495e+00     1.09020e+00     1.97083e+00
    1.84166e+00     1.01089e+00     1.86758e+00
    1.90017e+00     9.37259e-01     1.77053e+00
    1.96054e+00     8.68901e-01     1.67927e+00
    2.02283e+00     8.05418e-01     1.59339e+00
    2.08710e+00     7.46416e-01     1.51250e+00
    2.15341e+00     6.91575e-01     1.43625e+00
    2.22183e+00     6.40652e-01     1.36441e+00
    2.29242e+00     5.93404e-01     1.29672e+00
    2.36525e+00     5.49593e-01     1.23294e+00
    2.44040e+00     5.08976e-01     1.17281e+00
    2.51793e+00     4.71313e-01     1.11608e+00
    2.59793e+00     4.36365e-01     1.06251e+00
    2.68047e+00     4.03912e-01     1.01186e+00
    2.76563e+00     3.73804e-01     9.63993e-01
    2.85350e+00     3.45895e-01     9.18739e-01
    2.94416e+00     3.20043e-01     8.75952e-01
    3.03770e+00     2.96106e-01     8.35481e-01
    3.13421e+00     2.73939e-01     7.97175e-01
    3.23379e+00     2.53400e-01     7.60882e-01
    3.33653e+00     2.34351e-01     7.26458e-01
    3.44254e+00     2.16689e-01     6.93791e-01
    3.55191e+00     2.00331e-01     6.62792e-01
    3.66476e+00     1.85193e-01     6.33368e-01
    3.78120e+00     1.71190e-01     6.05428e-01
    3.90133e+00     1.58238e-01     5.78882e-01
    4.02528e+00     1.46254e-01     5.53638e-01
    4.15317e+00     1.35154e-01     5.29605e-01
    4.28512e+00     1.24869e-01     5.06707e-01
    4.42127e+00     1.15349e-01     4.84889e-01
    4.56173e+00     1.06545e-01     4.64095e-01
    4.70667e+00     9.84095e-02     4.44270e-01
    4.85620e+00     9.08922e-02     4.25359e-01
    5.01049e+00     8.39448e-02     4.07306e-01
    5.16968e+00     7.75183e-02     3.90057e-01
    5.33393e+00     7.15680e-02     3.73561e-01
    5.50340e+00     6.60630e-02     3.57782e-01
    5.67825e+00     6.09751e-02     3.42685e-01
    5.85865e+00     5.62764e-02     3.28238e-01
    6.04479e+00     5.19388e-02     3.14408e-01
    6.23684e+00     4.79343e-02     3.01160e-01
    6.43499e+00     4.42348e-02     2.88462e-01
    6.63944e+00     4.08129e-02     2.76282e-01
    6.85039e+00     3.76484e-02     2.64593e-01
    7.06803e+00     3.47251e-02     2.53377e-01
    7.29259e+00     3.20271e-02     2.42611e-01
    7.52429e+00     2.95383e-02     2.32277e-01
    7.76335e+00     2.72428e-02     2.22354e-01
    8.01000e+00     2.51245e-02     2.12821e-01
    8.26449e+00     2.31675e-02     2.03658e-01
    8.52706e+00     2.13583e-02     1.94847e-01
    8.79798e+00     1.96877e-02     1.86376e-01
    9.07750e+00     1.81465e-02     1.78233e-01
    9.36591e+00     1.67256e-02     1.70403e-01
    9.66347e+00     1.54161e-02     1.62875e-01
    9.97050e+00     1.42089e-02     1.55637e-01
    1.02873e+01     1.30950e-02     1.48675e-01
    1.06141e+01     1.20659e-02     1.41977e-01
    1.09513e+01     1.11158e-02     1.35535e-01
    1.12993e+01     1.02396e-02     1.29340e-01
    1.16583e+01     9.43228e-03     1.23384e-01
    1.20287e+01     8.68871e-03     1.17660e-01
    1.24108e+01     8.00382e-03     1.12157e-01
    1.28051e+01     7.37253e-03     1.06870e-01
    1.32120e+01     6.78985e-03     1.01788e-01
    1.36317e+01     6.25198e-03     9.69064e-02
    1.40648e+01     5.75608e-03     9.22182e-02
    1.45117e+01     5.29932e-03     8.77178e-02
    1.49728e+01     4.87885e-03     8.33994e-02
    1.54485e+01     4.49185e-03     7.92572e-02
    1.59393e+01     4.13548e-03     7.52854e-02
    1.64457e+01     3.80692e-03     7.14781e-02
    1.69682e+01     3.50371e-03     6.78299e-02
    1.75073e+01     3.22421e-03     6.43360e-02
    1.80635e+01     2.96684e-03     6.09918e-02
    1.86374e+01     2.73002e-03     5.77927e-02
    1.92296e+01     2.51219e-03     5.47341e-02
    1.98405e+01     2.31176e-03     5.18112e-02
    2.04709e+01     2.12718e-03     4.90195e-02
    2.11213e+01     1.95694e-03     4.63543e-02
    2.17923e+01     1.80001e-03     4.38115e-02
    2.24847e+01     1.65553e-03     4.13872e-02
    2.31991e+01     1.52263e-03     3.90772e-02
    2.39361e+01     1.40045e-03     3.68776e-02
    2.46966e+01     1.28811e-03     3.47844e-02
    2.54813e+01     1.18474e-03     3.27936e-02
    2.62908e+01     1.08950e-03     3.09012e-02
    2.71261e+01     1.00172e-03     2.91034e-02
    2.79880e+01     9.20901e-04     2.73967e-02
    2.88772e+01     8.46580e-04     2.57777e-02
    2.97946e+01     7.78278e-04     2.42429e-02
    3.07413e+01     7.15516e-04     2.27887e-02
    3.17180e+01     6.57821e-04     2.14118e-02
    3.27257e+01     6.04714e-04     2.01086e-02
    3.37654e+01     5.55775e-04     1.88758e-02
    3.48382e+01     5.10722e-04     1.77105e-02
    3.59450e+01     4.69294e-04     1.66098e-02
    3.70871e+01     4.31232e-04     1.55708e-02
    3.82654e+01     3.96275e-04     1.45907e-02
    3.94811e+01     3.64162e-04     1.36666e-02
    4.07355e+01     3.34634e-04     1.27956e-02
