# Matter power spectra at z=1.200000.
# D(z)=0.562447, f(z)=0.896971.
#      k[h/Mpc]         Plin(k)         HaloFit
    1.00000e-04     1.41192e+02     1.41192e+02
    1.04729e-04     1.47661e+02     1.47661e+02
    1.09682e-04     1.54425e+02     1.54425e+02
    1.14868e-04     1.61499e+02     1.61500e+02
    1.20301e-04     1.68897e+02     1.68898e+02
    1.25990e-04     1.76634e+02     1.76635e+02
    1.31948e-04     1.84725e+02     1.84724e+02
    1.38187e-04     1.93184e+02     1.93182e+02
    1.44722e-04     2.02030e+02     2.02027e+02
    1.51566e-04     2.11282e+02     2.11276e+02
    1.58734e-04     2.20956e+02     2.20949e+02
    1.66240e-04     2.31072e+02     2.31063e+02
    1.74102e-04     2.41648e+02     2.41638e+02
    1.82335e-04     2.52707e+02     2.52696e+02
    1.90957e-04     2.64272e+02     2.64260e+02
    1.99988e-04     2.76365e+02     2.76352e+02
    2.09445e-04     2.89007e+02     2.88994e+02
    2.19350e-04     3.02225e+02     3.02210e+02
    2.29723e-04     3.16044e+02     3.16028e+02
    2.40586e-04     3.30493e+02     3.30476e+02
    2.51964e-04     3.45600e+02     3.45580e+02
    2.63879e-04     3.61391e+02     3.61370e+02
    2.76358e-04     3.77898e+02     3.77875e+02
    2.89427e-04     3.95154e+02     3.95128e+02
    3.03114e-04     4.13192e+02     4.13164e+02
    3.17448e-04     4.32048e+02     4.32017e+02
    3.32460e-04     4.51753e+02     4.51720e+02
    3.48182e-04     4.72347e+02     4.72310e+02
    3.64647e-04     4.93869e+02     4.93829e+02
    3.81891e-04     5.16361e+02     5.16317e+02
    3.99951e-04     5.39864e+02     5.39816e+02
    4.18865e-04     5.64419e+02     5.64366e+02
    4.38673e-04     5.90071e+02     5.90013e+02
    4.59417e-04     6.16869e+02     6.16806e+02
    4.81143e-04     6.44863e+02     6.44793e+02
    5.03896e-04     6.74101e+02     6.74025e+02
    5.27725e-04     7.04633e+02     7.04549e+02
    5.52681e-04     7.36512e+02     7.36421e+02
    5.78818e-04     7.69797e+02     7.69698e+02
    6.06190e-04     8.04545e+02     8.04436e+02
    6.34857e-04     8.40815e+02     8.40695e+02
    6.64879e-04     8.78663e+02     8.78533e+02
    6.96321e-04     9.18154e+02     9.18011e+02
    7.29250e-04     9.59352e+02     9.59195e+02
    7.63736e-04     1.00232e+03     1.00215e+03
    7.99853e-04     1.04714e+03     1.04695e+03
    8.37678e-04     1.09386e+03     1.09366e+03
    8.77291e-04     1.14256e+03     1.14234e+03
    9.18778e-04     1.19332e+03     1.19307e+03
    9.62227e-04     1.24620e+03     1.24593e+03
    1.00773e-03     1.30128e+03     1.30099e+03
    1.05539e-03     1.35864e+03     1.35832e+03
    1.10530e-03     1.41836e+03     1.41801e+03
    1.15756e-03     1.48050e+03     1.48012e+03
    1.21231e-03     1.54516e+03     1.54475e+03
    1.26964e-03     1.61241e+03     1.61195e+03
    1.32968e-03     1.68233e+03     1.68183e+03
    1.39256e-03     1.75499e+03     1.75444e+03
    1.45841e-03     1.83047e+03     1.82988e+03
    1.52738e-03     1.90886e+03     1.90821e+03
    1.59961e-03     1.99022e+03     1.98951e+03
    1.67525e-03     2.07463e+03     2.07386e+03
    1.75447e-03     2.16217e+03     2.16133e+03
    1.83744e-03     2.25290e+03     2.25198e+03
    1.92434e-03     2.34687e+03     2.34587e+03
    2.01534e-03     2.44415e+03     2.44306e+03
    2.11064e-03     2.54481e+03     2.54362e+03
    2.21045e-03     2.64888e+03     2.64758e+03
    2.31499e-03     2.75640e+03     2.75498e+03
    2.42446e-03     2.86740e+03     2.86586e+03
    2.53911e-03     2.98191e+03     2.98023e+03
    2.65919e-03     3.09996e+03     3.09814e+03
    2.78494e-03     3.22155e+03     3.21957e+03
    2.91664e-03     3.34666e+03     3.34451e+03
    3.05457e-03     3.47527e+03     3.47293e+03
    3.19902e-03     3.60734e+03     3.60480e+03
    3.35030e-03     3.74286e+03     3.74010e+03
    3.50873e-03     3.88174e+03     3.87875e+03
    3.67466e-03     4.02389e+03     4.02064e+03
    3.84844e-03     4.16917e+03     4.16565e+03
    4.03043e-03     4.31748e+03     4.31367e+03
    4.22103e-03     4.46871e+03     4.46458e+03
    4.42064e-03     4.62266e+03     4.61819e+03
    4.62969e-03     4.77910e+03     4.77427e+03
    4.84863e-03     4.93781e+03     4.93258e+03
    5.07792e-03     5.09854e+03     5.09289e+03
    5.31805e-03     5.26106e+03     5.25496e+03
    5.56954e-03     5.42501e+03     5.41844e+03
    5.83292e-03     5.58999e+03     5.58291e+03
    6.10876e-03     5.75559e+03     5.74796e+03
    6.39764e-03     5.92139e+03     5.91318e+03
    6.70019e-03     6.08696e+03     6.07814e+03
    7.01704e-03     6.25178e+03     6.24230e+03
    7.34887e-03     6.41522e+03     6.40504e+03
    7.69640e-03     6.57667e+03     6.56576e+03
    8.06036e-03     6.73551e+03     6.72383e+03
    8.44153e-03     6.89113e+03     6.87862e+03
    8.84073e-03     7.04273e+03     7.02937e+03
    9.25881e-03     7.18946e+03     7.17520e+03
    9.69666e-03     7.33046e+03     7.31526e+03
    1.01552e-02     7.46487e+03     7.44868e+03
    1.06354e-02     7.59181e+03     7.57459e+03
    1.11384e-02     7.71027e+03     7.69199e+03
    1.16651e-02     7.81918e+03     7.79979e+03
    1.22168e-02     7.91745e+03     7.89693e+03
    1.27945e-02     8.00400e+03     7.98232e+03
    1.33996e-02     8.07776e+03     8.05489e+03
    1.40332e-02     8.13762e+03     8.11353e+03
    1.46968e-02     8.18246e+03     8.15715e+03
    1.53919e-02     8.21117e+03     8.18464e+03
    1.61197e-02     8.22264e+03     8.19490e+03
    1.68820e-02     8.21578e+03     8.18685e+03
    1.76804e-02     8.18982e+03     8.15973e+03
    1.85165e-02     8.14414e+03     8.11293e+03
    1.93921e-02     8.07810e+03     8.04585e+03
    2.03092e-02     7.99109e+03     7.95787e+03
    2.12696e-02     7.88258e+03     7.84851e+03
    2.22754e-02     7.75296e+03     7.71815e+03
    2.33288e-02     7.60301e+03     7.56762e+03
    2.44320e-02     7.43356e+03     7.39775e+03
    2.55874e-02     7.24539e+03     7.20935e+03
    2.67975e-02     7.03949e+03     7.00344e+03
    2.80647e-02     6.81821e+03     6.78237e+03
    2.93919e-02     6.58452e+03     6.54912e+03
    3.07818e-02     6.34141e+03     6.30667e+03
    3.22375e-02     6.09186e+03     6.05802e+03
    3.37620e-02     5.83891e+03     5.80619e+03
    3.53586e-02     5.58606e+03     5.55467e+03
    3.70307e-02     5.33700e+03     5.30711e+03
    3.87819e-02     5.09545e+03     5.06716e+03
    4.06159e-02     4.86508e+03     4.83847e+03
    4.25366e-02     4.64906e+03     4.62415e+03
    4.45481e-02     4.44903e+03     4.42579e+03
    4.66548e-02     4.26638e+03     4.24470e+03
    4.88611e-02     4.10219e+03     4.08192e+03
    5.11717e-02     3.95552e+03     3.93647e+03
    5.35916e-02     3.82440e+03     3.80635e+03
    5.61260e-02     3.70547e+03     3.68822e+03
    5.87802e-02     3.59416e+03     3.57756e+03
    6.15599e-02     3.48473e+03     3.46876e+03
    6.44710e-02     3.37089e+03     3.35567e+03
    6.75198e-02     3.24643e+03     3.23229e+03
    7.07128e-02     3.10618e+03     3.09368e+03
    7.40568e-02     2.94712e+03     2.93701e+03
    7.75590e-02     2.76926e+03     2.76244e+03
    8.12267e-02     2.57637e+03     2.57371e+03
    8.50679e-02     2.37570e+03     2.37791e+03
    8.90908e-02     2.17721e+03     2.18466e+03
    9.33039e-02     1.99173e+03     2.00435e+03
    9.77162e-02     1.82878e+03     1.84605e+03
    1.02337e-01     1.69464e+03     1.71563e+03
    1.07177e-01     1.59074e+03     1.61428e+03
    1.12245e-01     1.51289e+03     1.53785e+03
    1.17553e-01     1.45160e+03     1.47715e+03
    1.23112e-01     1.39376e+03     1.41968e+03
    1.28934e-01     1.32607e+03     1.35297e+03
    1.35031e-01     1.24019e+03     1.26930e+03
    1.41417e-01     1.13656e+03     1.16929e+03
    1.48105e-01     1.02518e+03     1.06242e+03
    1.55108e-01     9.21002e+02     9.62627e+02
    1.62444e-01     8.36839e+02     8.81765e+02
    1.70125e-01     7.77028e+02     8.23682e+02
    1.78171e-01     7.35492e+02     7.82577e+02
    1.86596e-01     6.99035e+02     7.46195e+02
    1.95420e-01     6.53866e+02     7.01935e+02
    2.04662e-01     5.95956e+02     6.46259e+02
    2.14340e-01     5.34389e+02     5.87531e+02
    2.24476e-01     4.81702e+02     5.37103e+02
    2.35092e-01     4.43783e+02     5.00186e+02
    2.46209e-01     4.15792e+02     4.72304e+02
    2.57852e-01     3.86904e+02     4.43725e+02
    2.70046e-01     3.52056e+02     4.09997e+02
    2.82817e-01     3.16501e+02     3.75834e+02
    2.96191e-01     2.88045e+02     3.48101e+02
    3.10198e-01     2.66252e+02     3.26341e+02
    3.24867e-01     2.44970e+02     3.05139e+02
    3.40230e-01     2.21854e+02     2.82477e+02
    3.56319e-01     2.00771e+02     2.61709e+02
    3.73170e-01     1.83714e+02     2.44516e+02
    3.90817e-01     1.67896e+02     2.28485e+02
    4.09298e-01     1.52074e+02     2.12562e+02
    4.28654e-01     1.37965e+02     1.98191e+02
    4.48925e-01     1.25656e+02     1.85425e+02
    4.70155e-01     1.13969e+02     1.73272e+02
    4.92388e-01     1.03199e+02     1.61969e+02
    5.15673e-01     9.36632e+01     1.51766e+02
    5.40059e-01     8.47968e+01     1.42191e+02
    5.65599e-01     7.67332e+01     1.33347e+02
    5.92346e-01     6.94443e+01     1.25202e+02
    6.20358e-01     6.27646e+01     1.17615e+02
    6.49694e-01     5.67237e+01     1.10605e+02
    6.80418e-01     5.12205e+01     1.04085e+02
    7.12595e-01     4.62279e+01     9.80272e+01
    7.46294e-01     4.17057e+01     9.23961e+01
    7.81586e-01     3.76034e+01     8.71476e+01
    8.18547e-01     3.38860e+01     8.22503e+01
    8.57256e-01     3.05211e+01     7.76756e+01
    8.97795e-01     2.74775e+01     7.33964e+01
    9.40252e-01     2.47251e+01     6.93865e+01
    9.84716e-01     2.22381e+01     6.56240e+01
    1.03128e+00     1.99928e+01     6.20889e+01
    1.08005e+00     1.79653e+01     5.87609e+01
    1.13113e+00     1.61354e+01     5.56232e+01
    1.18462e+00     1.44862e+01     5.26622e+01
    1.24064e+00     1.30013e+01     4.98644e+01
    1.29931e+00     1.16639e+01     4.72164e+01
    1.36075e+00     1.04586e+01     4.47056e+01
    1.42510e+00     9.37375e+00     4.23230e+01
    1.49250e+00     8.39885e+00     4.00607e+01
    1.56308e+00     7.52333e+00     3.79105e+01
    1.63699e+00     6.73665e+00     3.58643e+01
    1.71441e+00     6.02908e+00     3.39148e+01
    1.79548e+00     5.39362e+00     3.20569e+01
    1.88039e+00     4.82383e+00     3.02859e+01
    1.96931e+00     4.31327e+00     2.85971e+01
    2.06244e+00     3.85550e+00     2.69859e+01
    2.15997e+00     3.44462e+00     2.54480e+01
    2.26212e+00     3.07639e+00     2.39804e+01
    2.36909e+00     2.74692e+00     2.25803e+01
    2.48113e+00     2.45231e+00     2.12447e+01
    2.59846e+00     2.18865e+00     1.99711e+01
    2.72134e+00     1.95238e+00     1.87566e+01
    2.85003e+00     1.74101e+00     1.75994e+01
    2.98481e+00     1.55223e+00     1.64976e+01
    3.12596e+00     1.38371e+00     1.54491e+01
    3.27379e+00     1.23316e+00     1.44522e+01
    3.42860e+00     1.09848e+00     1.35050e+01
    3.59074e+00     9.78198e-01     1.26059e+01
    3.76055e+00     8.70954e-01     1.17534e+01
    3.93838e+00     7.75386e-01     1.09459e+01
    4.12463e+00     6.90134e-01     1.01819e+01
    4.31968e+00     6.13974e-01     9.45989e+00
    4.52396e+00     5.46054e-01     8.77843e+00
    4.73789e+00     4.85587e-01     8.13611e+00
    4.96195e+00     4.31782e-01     7.53151e+00
    5.19660e+00     3.83853e-01     6.96322e+00
    5.44234e+00     3.41094e-01     6.42984e+00
    5.69971e+00     3.03015e-01     5.93000e+00
    5.96925e+00     2.69163e-01     5.46231e+00
    6.25153e+00     2.39081e-01     5.02540e+00
    6.54717e+00     2.12317e-01     4.61790e+00
    6.85678e+00     1.88465e-01     4.23844e+00
    7.18104e+00     1.67248e-01     3.88569e+00
    7.52063e+00     1.48409e-01     3.55830e+00
    7.87628e+00     1.31688e-01     3.25492e+00
    8.24875e+00     1.16828e-01     2.97422e+00
    8.63883e+00     1.03600e-01     2.71488e+00
    9.04736e+00     9.18474e-02     2.47569e+00
    9.47521e+00     8.14244e-02     2.25543e+00
    9.92329e+00     7.21842e-02     2.05288e+00
    1.03926e+01     6.39805e-02     1.86683e+00
    1.08840e+01     5.66850e-02     1.69612e+00
    1.13987e+01     5.02099e-02     1.53975e+00
    1.19378e+01     4.44732e-02     1.39673e+00
    1.25023e+01     3.93926e-02     1.26608e+00
    1.30935e+01     3.48860e-02     1.14679e+00
    1.37127e+01     3.08819e-02     1.03797e+00
    1.43612e+01     2.73316e-02     9.38850e-01
    1.50403e+01     2.41892e-02     8.48700e-01
    1.57516e+01     2.14088e-02     7.66784e-01
    1.64965e+01     1.89446e-02     6.92367e-01
    1.72766e+01     1.67570e-02     6.24783e-01
    1.80936e+01     1.48190e-02     5.63503e-01
    1.89492e+01     1.31052e-02     5.08016e-01
    1.98454e+01     1.15902e-02     4.57812e-01
    2.07838e+01     1.02485e-02     4.12379e-01
    2.17667e+01     9.05830e-03     3.71262e-01
    2.27960e+01     8.00481e-03     3.34111e-01
    2.38741e+01     7.07395e-03     3.00588e-01
    2.50031e+01     6.25171e-03     2.70357e-01
    2.61855e+01     5.52406e-03     2.43079e-01
    2.74238e+01     4.87904e-03     2.18458e-01
    2.87206e+01     4.30853e-03     1.96271e-01
    3.00788e+01     3.80483e-03     1.76303e-01
    3.15012e+01     3.36024e-03     1.58341e-01
    3.29909e+01     2.96707e-03     1.42169e-01
    3.45511e+01     2.61879e-03     1.27601e-01
    3.61850e+01     2.31099e-03     1.14500e-01
    3.78962e+01     2.03944e-03     1.02732e-01
    3.96883e+01     1.79992e-03     9.21660e-02
    4.15651e+01     1.58822e-03     8.26686e-02
    4.35307e+01     1.40080e-03     7.41257e-02
    4.55893e+01     1.23527e-03     6.64542e-02
    4.77452e+01     1.08933e-03     5.95738e-02
    5.00031e+01     9.60697e-04     5.34042e-02
    5.23677e+01     8.47077e-04     4.78653e-02
    5.48442e+01     7.46562e-04     4.28885e-02
    5.74377e+01     6.57851e-04     3.84243e-02
    6.01540e+01     5.79696e-04     3.44246e-02
    6.29986e+01     5.10851e-04     3.08416e-02
    6.59778e+01     4.50073e-04     2.76275e-02
    6.90979e+01     3.96332e-04     2.47416e-02
    7.23655e+01     3.48930e-04     2.21551e-02
    7.57877e+01     3.07199e-04     1.98398e-02
    7.93717e+01     2.70470e-04     1.77676e-02
    8.31251e+01     2.38077e-04     1.59107e-02
    8.70561e+01     2.09465e-04     1.42450e-02
    9.11730e+01     1.84248e-04     1.27529e-02
    9.54846e+01     1.62051e-04     1.14171e-02
    1.00000e+02     1.42502e-04     1.02204e-02
