# Matter power spectra at z=0.700000.
# D(z)=0.701345, f(z)=0.807894.
#      k[h/Mpc]         Plin(k)         HaloFit
    1.00000e-04     2.19690e+02     2.19690e+02
    1.04729e-04     2.29755e+02     2.29756e+02
    1.09682e-04     2.40280e+02     2.40281e+02
    1.14868e-04     2.51287e+02     2.51288e+02
    1.20301e-04     2.62798e+02     2.62800e+02
    1.25990e-04     2.74836e+02     2.74837e+02
    1.31948e-04     2.87423e+02     2.87422e+02
    1.38187e-04     3.00585e+02     3.00580e+02
    1.44722e-04     3.14349e+02     3.14340e+02
    1.51566e-04     3.28743e+02     3.28729e+02
    1.58734e-04     3.43795e+02     3.43777e+02
    1.66240e-04     3.59533e+02     3.59511e+02
    1.74102e-04     3.75988e+02     3.75963e+02
    1.82335e-04     3.93194e+02     3.93167e+02
    1.90957e-04     4.11187e+02     4.11158e+02
    1.99988e-04     4.30000e+02     4.29969e+02
    2.09445e-04     4.49669e+02     4.49635e+02
    2.19350e-04     4.70232e+02     4.70195e+02
    2.29723e-04     4.91731e+02     4.91691e+02
    2.40586e-04     5.14209e+02     5.14166e+02
    2.51964e-04     5.37710e+02     5.37662e+02
    2.63879e-04     5.62276e+02     5.62223e+02
    2.76358e-04     5.87954e+02     5.87896e+02
    2.89427e-04     6.14797e+02     6.14734e+02
    3.03114e-04     6.42857e+02     6.42787e+02
    3.17448e-04     6.72186e+02     6.72110e+02
    3.32460e-04     7.02838e+02     7.02755e+02
    3.48182e-04     7.34870e+02     7.34779e+02
    3.64647e-04     7.68345e+02     7.68246e+02
    3.81891e-04     8.03328e+02     8.03219e+02
    3.99951e-04     8.39882e+02     8.39762e+02
    4.18865e-04     8.78071e+02     8.77940e+02
    4.38673e-04     9.17964e+02     9.17822e+02
    4.59417e-04     9.59639e+02     9.59483e+02
    4.81143e-04     1.00317e+03     1.00300e+03
    5.03896e-04     1.04864e+03     1.04845e+03
    5.27725e-04     1.09611e+03     1.09591e+03
    5.52681e-04     1.14568e+03     1.14546e+03
    5.78818e-04     1.19744e+03     1.19719e+03
    6.06190e-04     1.25146e+03     1.25120e+03
    6.34857e-04     1.30786e+03     1.30756e+03
    6.64879e-04     1.36670e+03     1.36638e+03
    6.96321e-04     1.42809e+03     1.42774e+03
    7.29250e-04     1.49214e+03     1.49176e+03
    7.63736e-04     1.55895e+03     1.55853e+03
    7.99853e-04     1.62862e+03     1.62816e+03
    8.37678e-04     1.70125e+03     1.70074e+03
    8.77291e-04     1.77696e+03     1.77641e+03
    9.18778e-04     1.85586e+03     1.85525e+03
    9.62227e-04     1.93807e+03     1.93741e+03
    1.00773e-03     2.02370e+03     2.02298e+03
    1.05539e-03     2.11287e+03     2.11209e+03
    1.10530e-03     2.20571e+03     2.20485e+03
    1.15756e-03     2.30233e+03     2.30139e+03
    1.21231e-03     2.40285e+03     2.40182e+03
    1.26964e-03     2.50740e+03     2.50628e+03
    1.32968e-03     2.61610e+03     2.61488e+03
    1.39256e-03     2.72907e+03     2.72773e+03
    1.45841e-03     2.84643e+03     2.84497e+03
    1.52738e-03     2.96830e+03     2.96670e+03
    1.59961e-03     3.09480e+03     3.09305e+03
    1.67525e-03     3.22604e+03     3.22414e+03
    1.75447e-03     3.36215e+03     3.36007e+03
    1.83744e-03     3.50320e+03     3.50094e+03
    1.92434e-03     3.64931e+03     3.64684e+03
    2.01534e-03     3.80056e+03     3.79787e+03
    2.11064e-03     3.95706e+03     3.95413e+03
    2.21045e-03     4.11887e+03     4.11568e+03
    2.31499e-03     4.28604e+03     4.28256e+03
    2.42446e-03     4.45863e+03     4.45484e+03
    2.53911e-03     4.63667e+03     4.63255e+03
    2.65919e-03     4.82022e+03     4.81573e+03
    2.78494e-03     5.00928e+03     5.00440e+03
    2.91664e-03     5.20380e+03     5.19849e+03
    3.05457e-03     5.40376e+03     5.39799e+03
    3.19902e-03     5.60912e+03     5.60285e+03
    3.35030e-03     5.81983e+03     5.81302e+03
    3.50873e-03     6.03577e+03     6.02838e+03
    3.67466e-03     6.25678e+03     6.24876e+03
    3.84844e-03     6.48267e+03     6.47398e+03
    4.03043e-03     6.71328e+03     6.70386e+03
    4.22103e-03     6.94842e+03     6.93821e+03
    4.42064e-03     7.18779e+03     7.17674e+03
    4.62969e-03     7.43104e+03     7.41909e+03
    4.84863e-03     7.67781e+03     7.66488e+03
    5.07792e-03     7.92772e+03     7.91375e+03
    5.31805e-03     8.18040e+03     8.16532e+03
    5.56954e-03     8.43531e+03     8.41904e+03
    5.83292e-03     8.69182e+03     8.67428e+03
    6.10876e-03     8.94929e+03     8.93039e+03
    6.39764e-03     9.20707e+03     9.18673e+03
    6.70019e-03     9.46452e+03     9.44263e+03
    7.01704e-03     9.72078e+03     9.69726e+03
    7.34887e-03     9.97491e+03     9.94966e+03
    7.69640e-03     1.02260e+04     1.01989e+04
    8.06036e-03     1.04729e+04     1.04439e+04
    8.44153e-03     1.07149e+04     1.06838e+04
    8.84073e-03     1.09506e+04     1.09174e+04
    9.25881e-03     1.11788e+04     1.11433e+04
    9.69666e-03     1.13980e+04     1.13602e+04
    1.01552e-02     1.16070e+04     1.15667e+04
    1.06354e-02     1.18044e+04     1.17615e+04
    1.11384e-02     1.19886e+04     1.19430e+04
    1.16651e-02     1.21580e+04     1.21095e+04
    1.22168e-02     1.23108e+04     1.22594e+04
    1.27945e-02     1.24453e+04     1.23911e+04
    1.33996e-02     1.25600e+04     1.25027e+04
    1.40332e-02     1.26530e+04     1.25926e+04
    1.46968e-02     1.27227e+04     1.26592e+04
    1.53919e-02     1.27674e+04     1.27007e+04
    1.61197e-02     1.27852e+04     1.27154e+04
    1.68820e-02     1.27745e+04     1.27016e+04
    1.76804e-02     1.27342e+04     1.26581e+04
    1.85165e-02     1.26631e+04     1.25842e+04
    1.93921e-02     1.25604e+04     1.24787e+04
    2.03092e-02     1.24251e+04     1.23407e+04
    2.12696e-02     1.22564e+04     1.21696e+04
    2.22754e-02     1.20548e+04     1.19659e+04
    2.33288e-02     1.18216e+04     1.17310e+04
    2.44320e-02     1.15581e+04     1.14660e+04
    2.55874e-02     1.12655e+04     1.11725e+04
    2.67975e-02     1.09454e+04     1.08519e+04
    2.80647e-02     1.06014e+04     1.05079e+04
    2.93919e-02     1.02381e+04     1.01451e+04
    3.07818e-02     9.86013e+03     9.76823e+03
    3.22375e-02     9.47214e+03     9.38184e+03
    3.37620e-02     9.07885e+03     8.99068e+03
    3.53586e-02     8.68570e+03     8.60013e+03
    3.70307e-02     8.29845e+03     8.21584e+03
    3.87819e-02     7.92284e+03     7.84346e+03
    4.06159e-02     7.56464e+03     7.48865e+03
    4.25366e-02     7.22875e+03     7.15621e+03
    4.45481e-02     6.91772e+03     6.84856e+03
    4.66548e-02     6.63369e+03     6.56770e+03
    4.88611e-02     6.37836e+03     6.31519e+03
    5.11717e-02     6.15029e+03     6.08952e+03
    5.35916e-02     5.94646e+03     5.88764e+03
    5.61260e-02     5.76154e+03     5.70427e+03
    5.87802e-02     5.58838e+03     5.53240e+03
    6.15599e-02     5.41832e+03     5.36363e+03
    6.44710e-02     5.24134e+03     5.18832e+03
    6.75198e-02     5.04779e+03     4.99727e+03
    7.07128e-02     4.82971e+03     4.78306e+03
    7.40568e-02     4.58241e+03     4.54140e+03
    7.75590e-02     4.30583e+03     4.27250e+03
    8.12267e-02     4.00592e+03     3.98229e+03
    8.50679e-02     3.69393e+03     3.68160e+03
    8.90908e-02     3.38528e+03     3.38511e+03
    9.33039e-02     3.09687e+03     3.10873e+03
    9.77162e-02     2.84352e+03     2.86628e+03
    1.02337e-01     2.63498e+03     2.66660e+03
    1.07177e-01     2.47340e+03     2.51138e+03
    1.12245e-01     2.35234e+03     2.39422e+03
    1.17553e-01     2.25706e+03     2.30112e+03
    1.23112e-01     2.16709e+03     2.21297e+03
    1.28934e-01     2.06186e+03     2.11088e+03
    1.35031e-01     1.92836e+03     1.98318e+03
    1.41417e-01     1.76719e+03     1.83076e+03
    1.48105e-01     1.59402e+03     1.66815e+03
    1.55108e-01     1.43203e+03     1.51645e+03
    1.62444e-01     1.30119e+03     1.39356e+03
    1.70125e-01     1.20816e+03     1.30516e+03
    1.78171e-01     1.14359e+03     1.24248e+03
    1.86596e-01     1.08690e+03     1.18696e+03
    1.95420e-01     1.01669e+03     1.11959e+03
    2.04662e-01     9.26636e+02     1.03505e+03
    2.14340e-01     8.30893e+02     9.45996e+02
    2.24476e-01     7.48987e+02     8.69529e+02
    2.35092e-01     6.90016e+02     8.13377e+02
    2.46209e-01     6.46509e+02     7.70816e+02
    2.57852e-01     6.01580e+02     7.27195e+02
    2.70046e-01     5.47400e+02     6.75899e+02
    2.82817e-01     4.92112e+02     6.23988e+02
    2.96191e-01     4.47866e+02     5.81710e+02
    3.10198e-01     4.13991e+02     5.48349e+02
    3.24867e-01     3.80896e+02     5.15810e+02
    3.40230e-01     3.44954e+02     4.81124e+02
    3.56319e-01     3.12171e+02     4.49265e+02
    3.73170e-01     2.85652e+02     4.22707e+02
    3.90817e-01     2.61055e+02     3.97867e+02
    4.09298e-01     2.36454e+02     3.73201e+02
    4.28654e-01     2.14517e+02     3.50829e+02
    4.48925e-01     1.95378e+02     3.30813e+02
    4.70155e-01     1.77206e+02     3.11705e+02
    4.92388e-01     1.60460e+02     2.93849e+02
    5.15673e-01     1.45635e+02     2.77598e+02
    5.40059e-01     1.31849e+02     2.62269e+02
    5.65599e-01     1.19311e+02     2.48005e+02
    5.92346e-01     1.07977e+02     2.34756e+02
    6.20358e-01     9.75903e+01     2.22322e+02
    6.49694e-01     8.81984e+01     2.10723e+02
    6.80418e-01     7.96421e+01     1.99834e+02
    7.12595e-01     7.18786e+01     1.89614e+02
    7.46294e-01     6.48465e+01     1.80011e+02
    7.81586e-01     5.84681e+01     1.70961e+02
    8.18547e-01     5.26883e+01     1.62420e+02
    8.57256e-01     4.74564e+01     1.54346e+02
    8.97795e-01     4.27242e+01     1.46701e+02
    9.40252e-01     3.84446e+01     1.39448e+02
    9.84716e-01     3.45777e+01     1.32557e+02
    1.03128e+00     3.10865e+01     1.26002e+02
    1.08005e+00     2.79339e+01     1.19753e+02
    1.13113e+00     2.50886e+01     1.13789e+02
    1.18462e+00     2.25243e+01     1.08093e+02
    1.24064e+00     2.02153e+01     1.02646e+02
    1.29931e+00     1.81359e+01     9.74329e+01
    1.36075e+00     1.62617e+01     9.24363e+01
    1.42510e+00     1.45750e+01     8.76458e+01
    1.49250e+00     1.30592e+01     8.30521e+01
    1.56308e+00     1.16979e+01     7.86458e+01
    1.63699e+00     1.04747e+01     7.44174e+01
    1.71441e+00     9.37457e+00     7.03584e+01
    1.79548e+00     8.38650e+00     6.64631e+01
    1.88039e+00     7.50053e+00     6.27264e+01
    1.96931e+00     6.70665e+00     5.91433e+01
    2.06244e+00     5.99485e+00     5.57087e+01
    2.15997e+00     5.35597e+00     5.24178e+01
    2.26212e+00     4.78342e+00     4.92672e+01
    2.36909e+00     4.27114e+00     4.62535e+01
    2.48113e+00     3.81304e+00     4.33735e+01
    2.59846e+00     3.40308e+00     4.06239e+01
    2.72134e+00     3.03571e+00     3.80015e+01
    2.85003e+00     2.70704e+00     3.55035e+01
    2.98481e+00     2.41349e+00     3.31270e+01
    3.12596e+00     2.15147e+00     3.08694e+01
    3.27379e+00     1.91738e+00     2.87277e+01
    3.42860e+00     1.70797e+00     2.66992e+01
    3.59074e+00     1.52095e+00     2.47809e+01
    3.76055e+00     1.35420e+00     2.29697e+01
    3.93838e+00     1.20562e+00     2.12626e+01
    4.12463e+00     1.07307e+00     1.96566e+01
    4.31968e+00     9.54651e-01     1.81484e+01
    4.52396e+00     8.49045e-01     1.67346e+01
    4.73789e+00     7.55025e-01     1.54116e+01
    4.96195e+00     6.71364e-01     1.41757e+01
    5.19660e+00     5.96839e-01     1.30234e+01
    5.44234e+00     5.30353e-01     1.19509e+01
    5.69971e+00     4.71145e-01     1.09544e+01
    5.96925e+00     4.18509e-01     1.00302e+01
    6.25153e+00     3.71737e-01     9.17421e+00
    6.54717e+00     3.30122e-01     8.38273e+00
    6.85678e+00     2.93036e-01     7.65194e+00
    7.18104e+00     2.60048e-01     6.97831e+00
    7.52063e+00     2.30756e-01     6.35834e+00
    7.87628e+00     2.04757e-01     5.78850e+00
    8.24875e+00     1.81652e-01     5.26529e+00
    8.63883e+00     1.61084e-01     4.78540e+00
    9.04736e+00     1.42810e-01     4.34594e+00
    9.47521e+00     1.26603e-01     3.94409e+00
    9.92329e+00     1.12236e-01     3.57704e+00
    1.03926e+01     9.94796e-02     3.24195e+00
    1.08840e+01     8.81359e-02     2.93624e+00
    1.13987e+01     7.80681e-02     2.65775e+00
    1.19378e+01     6.91483e-02     2.40442e+00
    1.25023e+01     6.12488e-02     2.17418e+00
    1.30935e+01     5.42418e-02     1.96494e+00
    1.37127e+01     4.80161e-02     1.77483e+00
    1.43612e+01     4.24958e-02     1.60236e+00
    1.50403e+01     3.76098e-02     1.44611e+00
    1.57516e+01     3.32866e-02     1.30465e+00
    1.64965e+01     2.94551e-02     1.17654e+00
    1.72766e+01     2.60537e-02     1.06051e+00
    1.80936e+01     2.30404e-02     9.55577e-01
    1.89492e+01     2.03757e-02     8.60808e-01
    1.98454e+01     1.80200e-02     7.75259e-01
    2.07838e+01     1.59339e-02     6.97992e-01
    2.17667e+01     1.40833e-02     6.28176e-01
    2.27960e+01     1.24453e-02     5.65189e-01
    2.38741e+01     1.09980e-02     5.08435e-01
    2.50031e+01     9.71952e-03     4.57315e-01
    2.61855e+01     8.58814e-03     4.11236e-01
    2.74238e+01     7.58525e-03     3.69673e-01
    2.87206e+01     6.69822e-03     3.32242e-01
    3.00788e+01     5.91506e-03     2.98574e-01
    3.15012e+01     5.22382e-03     2.68298e-01
    3.29909e+01     4.61252e-03     2.41047e-01
    3.45511e+01     4.07103e-03     2.16499e-01
    3.61850e+01     3.59246e-03     1.94421e-01
    3.78962e+01     3.17025e-03     1.74587e-01
    3.96883e+01     2.79785e-03     1.56774e-01
    4.15651e+01     2.46871e-03     1.40757e-01
    4.35307e+01     2.17733e-03     1.26343e-01
    4.55893e+01     1.91998e-03     1.13391e-01
    4.77452e+01     1.69309e-03     1.01768e-01
    5.00031e+01     1.49310e-03     9.13377e-02
    5.23677e+01     1.31646e-03     8.19663e-02
    5.48442e+01     1.16019e-03     7.35387e-02
    5.74377e+01     1.02228e-03     6.59719e-02
    6.01540e+01     9.00779e-04     5.91856e-02
    6.29986e+01     7.93754e-04     5.30997e-02
    6.59778e+01     6.99271e-04     4.76342e-02
    6.90979e+01     6.15728e-04     4.27214e-02
    7.23655e+01     5.42042e-04     3.83127e-02
    7.57877e+01     4.77172e-04     3.43612e-02
    7.93717e+01     4.20080e-04     3.08200e-02
    8.31251e+01     3.69729e-04     2.76423e-02
    8.70561e+01     3.25257e-04     2.47882e-02
    9.11730e+01     2.86062e-04     2.22278e-02
    9.54846e+01     2.51565e-04     1.99322e-02
    1.00000e+02     2.21183e-04     1.78726e-02
